wavelength, nm;	absorption
370.00;	0.5893
370.30;	0.5981
370.60;	0.6070
370.89;	0.6160
371.19;	0.6251
371.49;	0.6343
371.79;	0.6435
372.08;	0.6529
372.38;	0.6624
372.68;	0.6719
372.98;	0.6816
373.28;	0.6913
373.57;	0.7012
373.87;	0.7111
374.17;	0.7212
374.47;	0.7313
374.76;	0.7415
375.06;	0.7519
375.36;	0.7623
375.66;	0.7728
375.96;	0.7834
376.25;	0.7942
376.55;	0.8050
376.85;	0.8159
377.15;	0.8269
377.45;	0.8380
377.74;	0.8492
378.04;	0.8605
378.34;	0.8719
378.64;	0.8834
378.93;	0.8950
379.23;	0.9067
379.53;	0.9185
379.83;	0.9304
380.13;	0.9423
380.42;	0.9544
380.72;	0.9666
381.02;	0.9789
381.32;	0.9912
381.61;	1.0037
381.91;	1.0162
382.21;	1.0288
382.51;	1.0416
382.81;	1.0544
383.10;	1.0673
383.40;	1.0803
383.70;	1.0934
384.00;	1.1066
384.29;	1.1199
384.59;	1.1333
384.89;	1.1467
385.19;	1.1603
385.49;	1.1739
385.78;	1.1877
386.08;	1.2015
386.38;	1.2154
386.68;	1.2294
386.97;	1.2434
387.27;	1.2576
387.57;	1.2718
387.87;	1.2861
388.17;	1.3005
388.46;	1.3150
388.76;	1.3296
389.06;	1.3442
389.36;	1.3589
389.66;	1.3737
389.95;	1.3886
390.25;	1.4035
390.55;	1.4185
390.85;	1.4336
391.14;	1.4488
391.44;	1.4640
391.74;	1.4793
392.04;	1.4947
392.34;	1.5101
392.63;	1.5256
392.93;	1.5412
393.23;	1.5568
393.53;	1.5725
393.82;	1.5883
394.12;	1.6041
394.42;	1.6199
394.72;	1.6359
395.02;	1.6518
395.31;	1.6679
395.61;	1.6840
395.91;	1.7001
396.21;	1.7163
396.50;	1.7325
396.80;	1.7488
397.10;	1.7651
397.40;	1.7815
397.70;	1.7979
397.99;	1.8143
398.29;	1.8308
398.59;	1.8473
398.89;	1.8639
399.18;	1.8805
399.48;	1.8971
399.78;	1.9137
400.08;	1.9304
400.38;	1.9471
400.67;	1.9639
400.97;	1.9806
401.27;	1.9974
401.57;	2.0142
401.87;	2.0310
402.16;	2.0478
402.46;	2.0646
402.76;	2.0814
403.06;	2.0983
403.35;	2.1152
403.65;	2.1320
403.95;	2.1489
404.25;	2.1657
404.55;	2.1826
404.84;	2.1995
405.14;	2.2163
405.44;	2.2332
405.74;	2.2500
406.03;	2.2668
406.33;	2.2836
406.63;	2.3004
406.93;	2.3172
407.23;	2.3339
407.52;	2.3506
407.82;	2.3673
408.12;	2.3840
408.42;	2.4007
408.71;	2.4173
409.01;	2.4338
409.31;	2.4504
409.61;	2.4669
409.91;	2.4833
410.20;	2.4998
410.50;	2.5161
410.80;	2.5325
411.10;	2.5487
411.39;	2.5649
411.69;	2.5811
411.99;	2.5972
412.29;	2.6132
412.59;	2.6292
412.88;	2.6451
413.18;	2.6610
413.48;	2.6768
413.78;	2.6925
414.08;	2.7081
414.37;	2.7237
414.67;	2.7392
414.97;	2.7546
415.27;	2.7699
415.56;	2.7851
415.86;	2.8002
416.16;	2.8153
416.46;	2.8302
416.76;	2.8451
417.05;	2.8599
417.35;	2.8745
417.65;	2.8891
417.95;	2.9035
418.24;	2.9179
418.54;	2.9321
418.84;	2.9463
419.14;	2.9603
419.44;	2.9742
419.73;	2.9880
420.03;	3.0016
420.33;	3.0152
420.63;	3.0286
420.92;	3.0419
421.22;	3.0550
421.52;	3.0680
421.82;	3.0809
422.12;	3.0937
422.41;	3.1063
422.71;	3.1188
423.01;	3.1311
423.31;	3.1433
423.61;	3.1554
423.90;	3.1672
424.20;	3.1790
424.50;	3.1906
424.80;	3.2020
425.09;	3.2133
425.39;	3.2244
425.69;	3.2354
425.99;	3.2462
426.29;	3.2568
426.58;	3.2673
426.88;	3.2776
427.18;	3.2877
427.48;	3.2977
427.77;	3.3075
428.07;	3.3171
428.37;	3.3266
428.67;	3.3358
428.97;	3.3449
429.26;	3.3538
429.56;	3.3625
429.86;	3.3711
430.16;	3.3794
430.45;	3.3876
430.75;	3.3955
431.05;	3.4033
431.35;	3.4109
431.65;	3.4183
431.94;	3.4255
432.24;	3.4325
432.54;	3.4393
432.84;	3.4459
433.13;	3.4523
433.43;	3.4586
433.73;	3.4646
434.03;	3.4704
434.33;	3.4760
434.62;	3.4814
434.92;	3.4866
435.22;	3.4916
435.52;	3.4963
435.82;	3.5009
436.11;	3.5053
436.41;	3.5094
436.71;	3.5134
437.01;	3.5171
437.30;	3.5206
437.60;	3.5239
437.90;	3.5270
438.20;	3.5299
438.50;	3.5325
438.79;	3.5350
439.09;	3.5372
439.39;	3.5392
439.69;	3.5410
439.98;	3.5426
440.28;	3.5440
440.58;	3.5451
440.88;	3.5460
441.18;	3.5468
441.47;	3.5473
441.77;	3.5475
442.07;	3.5476
442.37;	3.5474
442.66;	3.5471
442.96;	3.5465
443.26;	3.5456
443.56;	3.5446
443.86;	3.5434
444.15;	3.5419
444.45;	3.5402
444.75;	3.5383
445.05;	3.5362
445.34;	3.5339
445.64;	3.5313
445.94;	3.5286
446.24;	3.5256
446.54;	3.5224
446.83;	3.5190
447.13;	3.5154
447.43;	3.5116
447.73;	3.5075
448.03;	3.5033
448.32;	3.4988
448.62;	3.4942
448.92;	3.4893
449.22;	3.4842
449.51;	3.4789
449.81;	3.4734
450.11;	3.4677
450.41;	3.4618
450.71;	3.4557
451.00;	3.4494
451.30;	3.4429
451.60;	3.4362
451.90;	3.4293
452.19;	3.4222
452.49;	3.4149
452.79;	3.4074
453.09;	3.3998
453.39;	3.3919
453.68;	3.3838
453.98;	3.3756
454.28;	3.3672
454.58;	3.3585
454.87;	3.3497
455.17;	3.3408
455.47;	3.3316
455.77;	3.3222
456.07;	3.3127
456.36;	3.3030
456.66;	3.2932
456.96;	3.2831
457.26;	3.2729
457.55;	3.2625
457.85;	3.2520
458.15;	3.2413
458.45;	3.2304
458.75;	3.2193
459.04;	3.2081
459.34;	3.1968
459.64;	3.1853
459.94;	3.1736
460.24;	3.1618
460.53;	3.1498
460.83;	3.1377
461.13;	3.1255
461.43;	3.1131
461.72;	3.1005
462.02;	3.0878
462.32;	3.0750
462.62;	3.0621
462.92;	3.0490
463.21;	3.0358
463.51;	3.0224
463.81;	3.0090
464.11;	2.9954
464.40;	2.9817
464.70;	2.9678
465.00;	2.9539
465.30;	2.9398
465.60;	2.9256
465.89;	2.9113
466.19;	2.8969
466.49;	2.8824
466.79;	2.8678
467.08;	2.8531
467.38;	2.8383
467.68;	2.8234
467.98;	2.8084
468.28;	2.7933
468.57;	2.7781
468.87;	2.7629
469.17;	2.7475
469.47;	2.7321
469.76;	2.7166
470.06;	2.7010
470.36;	2.6853
470.66;	2.6696
470.96;	2.6538
471.25;	2.6379
471.55;	2.6219
471.85;	2.6059
472.15;	2.5898
472.45;	2.5737
472.74;	2.5575
473.04;	2.5413
473.34;	2.5250
473.64;	2.5087
473.93;	2.4923
474.23;	2.4758
474.53;	2.4594
474.83;	2.4428
475.13;	2.4263
475.42;	2.4097
475.72;	2.3931
476.02;	2.3764
476.32;	2.3597
476.61;	2.3430
476.91;	2.3263
477.21;	2.3095
477.51;	2.2927
477.81;	2.2760
478.10;	2.2591
478.40;	2.2423
478.70;	2.2255
479.00;	2.2086
479.29;	2.1918
479.59;	2.1749
479.89;	2.1581
480.19;	2.1412
480.49;	2.1243
480.78;	2.1075
481.08;	2.0906
481.38;	2.0738
481.68;	2.0570
481.97;	2.0401
482.27;	2.0233
482.57;	2.0065
482.87;	1.9898
483.17;	1.9730
483.46;	1.9563
483.76;	1.9395
484.06;	1.9229
484.36;	1.9062
484.66;	1.8896
484.95;	1.8730
485.25;	1.8564
485.55;	1.8398
485.85;	1.8233
486.14;	1.8069
486.44;	1.7905
486.74;	1.7741
487.04;	1.7577
487.34;	1.7414
487.63;	1.7252
487.93;	1.7090
488.23;	1.6928
488.53;	1.6767
488.82;	1.6606
489.12;	1.6446
489.42;	1.6287
489.72;	1.6128
490.02;	1.5969
490.31;	1.5812
490.61;	1.5654
490.91;	1.5498
491.21;	1.5342
491.50;	1.5187
491.80;	1.5032
492.10;	1.4878
492.40;	1.4725
492.70;	1.4572
492.99;	1.4420
493.29;	1.4269
493.59;	1.4118
493.89;	1.3968
494.18;	1.3819
494.48;	1.3671
494.78;	1.3524
495.08;	1.3377
495.38;	1.3231
495.67;	1.3086
495.97;	1.2941
496.27;	1.2798
496.57;	1.2655
496.87;	1.2513
497.16;	1.2372
497.46;	1.2232
497.76;	1.2092
498.06;	1.1954
498.35;	1.1816
498.65;	1.1679
498.95;	1.1543
499.25;	1.1408
499.55;	1.1274
499.84;	1.1141
500.14;	1.1008
500.44;	1.0877
500.74;	1.0746
501.03;	1.0617
501.33;	1.0488
501.63;	1.0360
501.93;	1.0233
502.23;	1.0107
502.52;	0.9982
502.82;	0.9858
503.12;	0.9735
503.42;	0.9613
503.71;	0.9492
504.01;	0.9372
504.31;	0.9252
504.61;	0.9134
504.91;	0.9017
505.20;	0.8900
505.50;	0.8785
505.80;	0.8670
506.10;	0.8557
506.39;	0.8444
506.69;	0.8333
506.99;	0.8222
507.29;	0.8113
507.59;	0.8004
507.88;	0.7896
508.18;	0.7790
508.48;	0.7684
508.78;	0.7579
509.08;	0.7475
509.37;	0.7373
509.67;	0.7271
509.97;	0.7170
510.27;	0.7070
510.56;	0.6971
510.86;	0.6873
511.16;	0.6776
511.46;	0.6680
511.76;	0.6585
512.05;	0.6491
512.35;	0.6398
512.65;	0.6305
512.95;	0.6214
513.24;	0.6124
513.54;	0.6034
513.84;	0.5946
514.14;	0.5859
514.44;	0.5772
514.73;	0.5686
515.03;	0.5602
515.33;	0.5518
515.63;	0.5435
515.92;	0.5353
516.22;	0.5272
516.52;	0.5192
516.82;	0.5113
517.12;	0.5035
517.41;	0.4957
517.71;	0.4881
518.01;	0.4805
518.31;	0.4730
518.61;	0.4657
518.90;	0.4584
519.20;	0.4512
519.50;	0.4440
519.80;	0.4370
520.09;	0.4301
520.39;	0.4232
520.69;	0.4164
520.99;	0.4097
521.29;	0.4031
521.58;	0.3966
521.88;	0.3901
522.18;	0.3838
522.48;	0.3775
522.77;	0.3713
523.07;	0.3651
523.37;	0.3591
523.67;	0.3531
523.97;	0.3472
524.26;	0.3414
524.56;	0.3357
524.86;	0.3300
525.16;	0.3245
525.45;	0.3190
525.75;	0.3135
526.05;	0.3082
526.35;	0.3029
526.65;	0.2977
526.94;	0.2925
527.24;	0.2875
527.54;	0.2825
527.84;	0.2776
528.13;	0.2727
528.43;	0.2679
528.73;	0.2632
529.03;	0.2586
529.33;	0.2540
529.62;	0.2495
529.92;	0.2450
530.22;	0.2406
530.52;	0.2363
530.82;	0.2321
531.11;	0.2279
531.41;	0.2237
531.71;	0.2197
532.01;	0.2157
532.30;	0.2117
532.60;	0.2079
532.90;	0.2040
533.20;	0.2003
533.50;	0.1966
533.79;	0.1929
534.09;	0.1893
534.39;	0.1858
534.69;	0.1823
534.98;	0.1789
535.28;	0.1755
535.58;	0.1722
535.88;	0.1689
536.18;	0.1657
536.47;	0.1626
536.77;	0.1595
537.07;	0.1564
537.37;	0.1534
537.66;	0.1504
537.96;	0.1475
538.26;	0.1447
538.56;	0.1419
538.86;	0.1391
539.15;	0.1364
539.45;	0.1337
539.75;	0.1311
540.05;	0.1285
540.34;	0.1260
540.64;	0.1235
540.94;	0.1210
541.24;	0.1186
541.54;	0.1163
541.83;	0.1139
542.13;	0.1116
542.43;	0.1094
542.73;	0.1072
543.03;	0.1050
543.32;	0.1029
543.62;	0.1008
543.92;	0.0988
544.22;	0.0968
544.51;	0.0948
544.81;	0.0929
545.11;	0.0910
545.41;	0.0891
545.71;	0.0872
546.00;	0.0854
546.30;	0.0837
546.60;	0.0819
546.90;	0.0802
547.19;	0.0786
547.49;	0.0769
547.79;	0.0753
548.09;	0.0738
548.39;	0.0722
548.68;	0.0707
548.98;	0.0692
549.28;	0.0678
549.58;	0.0663
549.87;	0.0649
550.17;	0.0635
550.47;	0.0622
550.77;	0.0609
551.07;	0.0596
551.36;	0.0583
551.66;	0.0571
551.96;	0.0559
552.26;	0.0547
552.55;	0.0535
552.85;	0.0523
553.15;	0.0512
553.45;	0.0501
553.75;	0.0490
554.04;	0.0480
554.34;	0.0470
554.64;	0.0459
554.94;	0.0450
555.24;	0.0440
555.53;	0.0430
555.83;	0.0421
556.13;	0.0412
556.43;	0.0403
556.72;	0.0394
557.02;	0.0386
557.32;	0.0378
557.62;	0.0369
557.92;	0.0361
558.21;	0.0354
558.51;	0.0346
558.81;	0.0338
559.11;	0.0331
559.40;	0.0324
559.70;	0.0317
560.00;	0.0310
560.30;	0.0303
560.60;	0.0297
560.89;	0.0291
561.19;	0.0284
561.49;	0.0278
561.79;	0.0272
562.08;	0.0266
562.38;	0.0261
562.68;	0.0255
562.98;	0.0250
563.28;	0.0244
563.57;	0.0239
563.87;	0.0234
564.17;	0.0229
564.47;	0.0224
564.76;	0.0220
565.06;	0.0215
565.36;	0.0211
565.66;	0.0206
565.96;	0.0202
566.25;	0.0198
566.55;	0.0194
566.85;	0.0190
567.15;	0.0186
567.45;	0.0182
567.74;	0.0178
568.04;	0.0175
568.34;	0.0171
568.64;	0.0168
568.93;	0.0165
569.23;	0.0161
569.53;	0.0158
569.83;	0.0155
570.13;	0.0152
570.42;	0.0149
570.72;	0.0146
571.02;	0.0144
571.32;	0.0141
571.61;	0.0138
571.91;	0.0136
572.21;	0.0133
572.51;	0.0131
572.81;	0.0129
573.10;	0.0126
573.40;	0.0124
573.70;	0.0122
574.00;	0.0120
574.29;	0.0118
574.59;	0.0116
574.89;	0.0114
575.19;	0.0112
575.49;	0.0110
575.78;	0.0108
576.08;	0.0107
576.38;	0.0105
576.68;	0.0103
576.97;	0.0102
577.27;	0.0100
577.57;	0.0099
577.87;	0.0097
578.17;	0.0096
578.46;	0.0095
578.76;	0.0093
579.06;	0.0092
579.36;	0.0091
579.66;	0.0090
579.95;	0.0089
580.25;	0.0088
580.55;	0.0086
580.85;	0.0085
581.14;	0.0084
581.44;	0.0083
581.74;	0.0083
582.04;	0.0082
582.34;	0.0081
582.63;	0.0080
582.93;	0.0079
583.23;	0.0078
583.53;	0.0078
583.82;	0.0077
584.12;	0.0076
584.42;	0.0076
584.72;	0.0075
585.02;	0.0074
585.31;	0.0074
585.61;	0.0073
585.91;	0.0073
586.21;	0.0072
586.50;	0.0072
586.80;	0.0071
587.10;	0.0071
587.40;	0.0070
587.70;	0.0070
587.99;	0.0070
588.29;	0.0069
588.59;	0.0069
588.89;	0.0068
589.18;	0.0068
589.48;	0.0068
589.78;	0.0068
590.08;	0.0067
590.38;	0.0067
590.67;	0.0067
590.97;	0.0067
591.27;	0.0067
591.57;	0.0066
591.87;	0.0066
592.16;	0.0066
592.46;	0.0066
592.76;	0.0066
593.06;	0.0066
593.35;	0.0066
593.65;	0.0065
593.95;	0.0065
594.25;	0.0065
594.55;	0.0065
594.84;	0.0065
595.14;	0.0065
595.44;	0.0065
595.74;	0.0065
596.03;	0.0065
596.33;	0.0065
596.63;	0.0065
596.93;	0.0065
597.23;	0.0065
597.52;	0.0065
597.82;	0.0065
598.12;	0.0065
598.42;	0.0066
598.71;	0.0066
599.01;	0.0066
599.31;	0.0066
599.61;	0.0066
599.91;	0.0066
600.20;	0.0066
600.50;	0.0066
600.80;	0.0066
601.10;	0.0067
601.39;	0.0067
601.69;	0.0067
601.99;	0.0067
602.29;	0.0067
602.59;	0.0067
602.88;	0.0068
603.18;	0.0068
603.48;	0.0068
603.78;	0.0068
604.08;	0.0068
604.37;	0.0068
604.67;	0.0069
604.97;	0.0069
605.27;	0.0069
605.56;	0.0069
605.86;	0.0070
606.16;	0.0070
606.46;	0.0070
606.76;	0.0070
607.05;	0.0070
607.35;	0.0071
607.65;	0.0071
607.95;	0.0071
608.24;	0.0071
608.54;	0.0072
608.84;	0.0072
609.14;	0.0072
609.44;	0.0072
609.73;	0.0073
610.03;	0.0073
610.33;	0.0073
610.63;	0.0073
610.92;	0.0074
611.22;	0.0074
611.52;	0.0074
611.82;	0.0075
612.12;	0.0075
612.41;	0.0075
612.71;	0.0075
613.01;	0.0076
613.31;	0.0076
613.61;	0.0076
613.90;	0.0077
614.20;	0.0077
614.50;	0.0077
614.80;	0.0077
615.09;	0.0078
615.39;	0.0078
615.69;	0.0078
615.99;	0.0079
616.29;	0.0079
616.58;	0.0079
616.88;	0.0080
617.18;	0.0080
617.48;	0.0080
617.77;	0.0080
618.07;	0.0081
618.37;	0.0081
618.67;	0.0081
618.97;	0.0082
619.26;	0.0082
619.56;	0.0082
619.86;	0.0083
620.16;	0.0083
620.45;	0.0083
620.75;	0.0083
621.05;	0.0084
621.35;	0.0084
621.65;	0.0084
621.94;	0.0085
622.24;	0.0085
622.54;	0.0085
622.84;	0.0086
623.13;	0.0086
623.43;	0.0086
623.73;	0.0087
624.03;	0.0087
624.33;	0.0087
624.62;	0.0088
624.92;	0.0088
625.22;	0.0088
625.52;	0.0088
625.82;	0.0089
626.11;	0.0089
626.41;	0.0089
626.71;	0.0090
627.01;	0.0090
627.30;	0.0090
627.60;	0.0091
627.90;	0.0091
628.20;	0.0091
628.50;	0.0092
628.79;	0.0092
629.09;	0.0092
629.39;	0.0093
629.69;	0.0093
629.98;	0.0093
630.28;	0.0093
630.58;	0.0094
630.88;	0.0094
631.18;	0.0094
631.47;	0.0095
631.77;	0.0095
632.07;	0.0095
632.37;	0.0096
632.66;	0.0096
632.96;	0.0096
633.26;	0.0097
633.56;	0.0097
633.86;	0.0097
634.15;	0.0097
634.45;	0.0098
634.75;	0.0098
635.05;	0.0098
635.34;	0.0099
635.64;	0.0099
635.94;	0.0099
636.24;	0.0099
636.54;	0.0100
636.83;	0.0100
637.13;	0.0100
637.43;	0.0101
637.73;	0.0101
638.03;	0.0101
638.32;	0.0102
638.62;	0.0102
638.92;	0.0102
639.22;	0.0102
639.51;	0.0103
639.81;	0.0103
640.11;	0.0103
640.41;	0.0103
640.71;	0.0104
641.00;	0.0104
641.30;	0.0104
641.60;	0.0105
641.90;	0.0105
642.19;	0.0105
642.49;	0.0105
642.79;	0.0106
643.09;	0.0106
643.39;	0.0106
643.68;	0.0106
643.98;	0.0107
644.28;	0.0107
644.58;	0.0107
644.87;	0.0107
645.17;	0.0108
645.47;	0.0108
645.77;	0.0108
646.07;	0.0108
646.36;	0.0109
646.66;	0.0109
646.96;	0.0109
647.26;	0.0109
647.55;	0.0110
647.85;	0.0110
648.15;	0.0110
648.45;	0.0110
648.75;	0.0111
649.04;	0.0111
649.34;	0.0111
649.64;	0.0111
649.94;	0.0112
650.24;	0.0112
650.53;	0.0112
650.83;	0.0112
651.13;	0.0113
651.43;	0.0113
651.72;	0.0113
652.02;	0.0113
652.32;	0.0113
652.62;	0.0114
652.92;	0.0114
653.21;	0.0114
653.51;	0.0114
653.81;	0.0114
654.11;	0.0115
654.40;	0.0115
654.70;	0.0115
655.00;	0.0115
655.30;	0.0115
655.60;	0.0116
655.89;	0.0116
656.19;	0.0116
656.49;	0.0116
656.79;	0.0116
657.08;	0.0117
657.38;	0.0117
657.68;	0.0117
657.98;	0.0117
658.28;	0.0117
658.57;	0.0117
658.87;	0.0118
659.17;	0.0118
659.47;	0.0118
659.76;	0.0118
660.06;	0.0118
660.36;	0.0119
660.66;	0.0119
660.96;	0.0119
661.25;	0.0119
661.55;	0.0119
661.85;	0.0119
662.15;	0.0119
662.45;	0.0120
662.74;	0.0120
663.04;	0.0120
663.34;	0.0120
663.64;	0.0120
663.93;	0.0120
664.23;	0.0120
664.53;	0.0121
664.83;	0.0121
665.13;	0.0121
665.42;	0.0121
665.72;	0.0121
666.02;	0.0121
666.32;	0.0121
666.61;	0.0121
666.91;	0.0122
667.21;	0.0122
667.51;	0.0122
667.81;	0.0122
668.10;	0.0122
668.40;	0.0122
668.70;	0.0122
669.00;	0.0122
669.29;	0.0122
669.59;	0.0122
669.89;	0.0123
670.19;	0.0123
670.49;	0.0123
670.78;	0.0123
671.08;	0.0123
671.38;	0.0123
671.68;	0.0123
671.97;	0.0123
672.27;	0.0123
672.57;	0.0123
672.87;	0.0123
673.17;	0.0123
673.46;	0.0123
673.76;	0.0124
674.06;	0.0124
674.36;	0.0124
674.66;	0.0124
674.95;	0.0124
675.25;	0.0124
675.55;	0.0124
675.85;	0.0124
676.14;	0.0124
676.44;	0.0124
676.74;	0.0124
677.04;	0.0124
677.34;	0.0124
677.63;	0.0124
677.93;	0.0124
678.23;	0.0124
678.53;	0.0124
678.82;	0.0124
679.12;	0.0124
679.42;	0.0124
679.72;	0.0124
680.02;	0.0124
680.31;	0.0124
680.61;	0.0124
680.91;	0.0124
681.21;	0.0124
681.50;	0.0124
681.80;	0.0124
682.10;	0.0124
682.40;	0.0124
682.70;	0.0124
682.99;	0.0124
683.29;	0.0124
683.59;	0.0124
683.89;	0.0124
684.18;	0.0124
684.48;	0.0124
684.78;	0.0124
685.08;	0.0124
685.38;	0.0124
685.67;	0.0124
685.97;	0.0124
686.27;	0.0124
686.57;	0.0124
686.87;	0.0124
687.16;	0.0124
687.46;	0.0124
687.76;	0.0124
688.06;	0.0124
688.35;	0.0124
688.65;	0.0123
688.95;	0.0123
689.25;	0.0123
689.55;	0.0123
689.84;	0.0123
690.14;	0.0123
690.44;	0.0123
690.74;	0.0123
691.03;	0.0123
691.33;	0.0123
691.63;	0.0123
691.93;	0.0123
692.23;	0.0123
692.52;	0.0122
692.82;	0.0122
693.12;	0.0122
693.42;	0.0122
693.71;	0.0122
694.01;	0.0122
694.31;	0.0122
694.61;	0.0122
694.91;	0.0122
695.20;	0.0122
695.50;	0.0121
695.80;	0.0121
696.10;	0.0121
696.39;	0.0121
696.69;	0.0121
696.99;	0.0121
697.29;	0.0121
697.59;	0.0121
697.88;	0.0120
698.18;	0.0120
698.48;	0.0120
698.78;	0.0120
699.08;	0.0120
699.37;	0.0120
699.67;	0.0120
699.97;	0.0119
700.27;	0.0119
700.56;	0.0119
700.86;	0.0119
701.16;	0.0119
701.46;	0.0119
701.76;	0.0118
702.05;	0.0118
702.35;	0.0118
702.65;	0.0118
702.95;	0.0118
703.24;	0.0118
703.54;	0.0117
703.84;	0.0117
704.14;	0.0117
704.44;	0.0117
704.73;	0.0117
705.03;	0.0117
705.33;	0.0116
705.63;	0.0116
705.92;	0.0116
706.22;	0.0116
706.52;	0.0116
706.82;	0.0115
707.12;	0.0115
707.41;	0.0115
707.71;	0.0115
708.01;	0.0115
708.31;	0.0114
708.61;	0.0114
708.90;	0.0114
709.20;	0.0114
709.50;	0.0114
709.80;	0.0113
710.09;	0.0113
710.39;	0.0113
710.69;	0.0113
710.99;	0.0112
711.29;	0.0112
711.58;	0.0112
711.88;	0.0112
712.18;	0.0112
712.48;	0.0111
712.77;	0.0111
713.07;	0.0111
713.37;	0.0111
713.67;	0.0110
713.97;	0.0110
714.26;	0.0110
714.56;	0.0110
714.86;	0.0109
715.16;	0.0109
715.45;	0.0109
715.75;	0.0109
716.05;	0.0108
716.35;	0.0108
716.65;	0.0108
716.94;	0.0108
717.24;	0.0107
717.54;	0.0107
717.84;	0.0107
718.13;	0.0107
718.43;	0.0106
718.73;	0.0106
719.03;	0.0106
719.33;	0.0106
719.62;	0.0105
719.92;	0.0105
720.22;	0.0105
720.52;	0.0104
720.82;	0.0104
721.11;	0.0104
721.41;	0.0104
721.71;	0.0103
722.01;	0.0103
722.30;	0.0103
722.60;	0.0102
722.90;	0.0102
723.20;	0.0102
723.50;	0.0102
723.79;	0.0101
724.09;	0.0101
724.39;	0.0101
724.69;	0.0100
724.98;	0.0100
725.28;	0.0100
725.58;	0.0100
725.88;	0.0099
726.18;	0.0099
726.47;	0.0099
726.77;	0.0098
727.07;	0.0098
727.37;	0.0098
727.66;	0.0098
727.96;	0.0097
728.26;	0.0097
728.56;	0.0097
728.86;	0.0096
729.15;	0.0096
729.45;	0.0096
729.75;	0.0095
730.05;	0.0095
730.34;	0.0095
730.64;	0.0094
730.94;	0.0094
731.24;	0.0094
731.54;	0.0093
731.83;	0.0093
732.13;	0.0093
732.43;	0.0093
732.73;	0.0092
733.03;	0.0092
733.32;	0.0092
733.62;	0.0091
733.92;	0.0091
734.22;	0.0091
734.51;	0.0090
734.81;	0.0090
735.11;	0.0090
735.41;	0.0089
735.71;	0.0089
736.00;	0.0089
736.30;	0.0088
736.60;	0.0088
736.90;	0.0088
737.19;	0.0087
737.49;	0.0087
737.79;	0.0087
738.09;	0.0086
738.39;	0.0086
738.68;	0.0086
738.98;	0.0085
739.28;	0.0085
739.58;	0.0085
739.87;	0.0084
740.17;	0.0084
740.47;	0.0084
740.77;	0.0083
741.07;	0.0083
741.36;	0.0083
741.66;	0.0082
741.96;	0.0082
742.26;	0.0082
742.55;	0.0081
742.85;	0.0081
743.15;	0.0081
743.45;	0.0080
743.75;	0.0080
744.04;	0.0080
744.34;	0.0079
744.64;	0.0079
744.94;	0.0079
745.24;	0.0078
745.53;	0.0078
745.83;	0.0078
746.13;	0.0077
746.43;	0.0077
746.72;	0.0077
747.02;	0.0076
747.32;	0.0076
747.62;	0.0076
747.92;	0.0075
748.21;	0.0075
748.51;	0.0075
748.81;	0.0074
749.11;	0.0074
749.40;	0.0074
749.70;	0.0073
750.00;	0.0073
750.30;	0.0073
750.60;	0.0072
750.89;	0.0072
751.19;	0.0072
751.49;	0.0071
751.79;	0.0071
752.08;	0.0071
752.38;	0.0070
752.68;	0.0070
752.98;	0.0070
753.28;	0.0069
753.57;	0.0069
753.87;	0.0069
754.17;	0.0068
754.47;	0.0068
754.76;	0.0068
755.06;	0.0067
755.36;	0.0067
755.66;	0.0067
755.96;	0.0066
756.25;	0.0066
756.55;	0.0066
756.85;	0.0065
757.15;	0.0065
757.45;	0.0065
757.74;	0.0064
758.04;	0.0064
758.34;	0.0064
758.64;	0.0064
758.93;	0.0063
759.23;	0.0063
759.53;	0.0063
759.83;	0.0062
760.13;	0.0062
760.42;	0.0062
760.72;	0.0061
761.02;	0.0061
761.32;	0.0061
761.61;	0.0060
761.91;	0.0060
762.21;	0.0060
762.51;	0.0059
762.81;	0.0059
763.10;	0.0059
763.40;	0.0058
763.70;	0.0058
764.00;	0.0058
764.29;	0.0057
764.59;	0.0057
764.89;	0.0057
765.19;	0.0056
765.49;	0.0056
765.78;	0.0056
766.08;	0.0055
766.38;	0.0055
766.68;	0.0055
766.97;	0.0055
767.27;	0.0054
767.57;	0.0054
767.87;	0.0054
768.17;	0.0053
768.46;	0.0053
768.76;	0.0053
769.06;	0.0052
769.36;	0.0052
769.66;	0.0052
769.95;	0.0051
770.25;	0.0051
770.55;	0.0051
770.85;	0.0051
771.14;	0.0050
771.44;	0.0050
771.74;	0.0050
772.04;	0.0049
772.34;	0.0049
772.63;	0.0049
772.93;	0.0048
773.23;	0.0048
773.53;	0.0048
773.82;	0.0048
774.12;	0.0047
774.42;	0.0047
774.72;	0.0047
775.02;	0.0046
775.31;	0.0046
775.61;	0.0046
775.91;	0.0046
776.21;	0.0045
776.50;	0.0045
776.80;	0.0045
777.10;	0.0044
777.40;	0.0044
777.70;	0.0044
777.99;	0.0044
778.29;	0.0043
778.59;	0.0043
778.89;	0.0043
779.18;	0.0042
779.48;	0.0042
779.78;	0.0042
780.08;	0.0042
780.38;	0.0041
780.67;	0.0041
780.97;	0.0041
781.27;	0.0041
781.57;	0.0040
781.87;	0.0040
782.16;	0.0040
782.46;	0.0039
782.76;	0.0039
783.06;	0.0039
783.35;	0.0039
783.65;	0.0038
783.95;	0.0038
784.25;	0.0038
784.55;	0.0038
784.84;	0.0037
785.14;	0.0037
785.44;	0.0037
785.74;	0.0037
786.03;	0.0036
786.33;	0.0036
786.63;	0.0036
786.93;	0.0036
787.23;	0.0035
787.52;	0.0035
787.82;	0.0035
788.12;	0.0035
788.42;	0.0034
788.71;	0.0034
789.01;	0.0034
789.31;	0.0034
789.61;	0.0033
789.91;	0.0033
790.20;	0.0033
790.50;	0.0033
790.80;	0.0032
791.10;	0.0032
791.39;	0.0032
791.69;	0.0032
791.99;	0.0032
792.29;	0.0031
792.59;	0.0031
792.88;	0.0031
793.18;	0.0031
793.48;	0.0030
793.78;	0.0030
794.08;	0.0030
794.37;	0.0030
794.67;	0.0029
794.97;	0.0029
795.27;	0.0029
795.56;	0.0029
795.86;	0.0029
796.16;	0.0028
796.46;	0.0028
796.76;	0.0028
797.05;	0.0028
797.35;	0.0028
797.65;	0.0027
797.95;	0.0027
798.24;	0.0027
798.54;	0.0027
798.84;	0.0026
799.14;	0.0026
799.44;	0.0026
799.73;	0.0026
800.03;	0.0026
800.33;	0.0025
800.63;	0.0025
800.92;	0.0025
801.22;	0.0025
801.52;	0.0025
801.82;	0.0024
802.12;	0.0024
802.41;	0.0024
802.71;	0.0024
803.01;	0.0024
803.31;	0.0023
803.61;	0.0023
803.90;	0.0023
804.20;	0.0023
804.50;	0.0023
804.80;	0.0023
805.09;	0.0022
805.39;	0.0022
805.69;	0.0022
805.99;	0.0022
806.29;	0.0022
806.58;	0.0021
806.88;	0.0021
807.18;	0.0021
807.48;	0.0021
807.77;	0.0021
808.07;	0.0021
808.37;	0.0020
808.67;	0.0020
808.97;	0.0020
809.26;	0.0020
809.56;	0.0020
809.86;	0.0020
810.16;	0.0019
810.45;	0.0019
810.75;	0.0019
811.05;	0.0019
811.35;	0.0019
811.65;	0.0019
811.94;	0.0018
812.24;	0.0018
812.54;	0.0018
812.84;	0.0018
813.13;	0.0018
813.43;	0.0018
813.73;	0.0017
814.03;	0.0017
814.33;	0.0017
814.62;	0.0017
814.92;	0.0017
815.22;	0.0017
815.52;	0.0017
815.82;	0.0016
816.11;	0.0016
816.41;	0.0016
816.71;	0.0016
817.01;	0.0016
817.30;	0.0016
817.60;	0.0016
817.90;	0.0015
818.20;	0.0015
818.50;	0.0015
818.79;	0.0015
819.09;	0.0015
819.39;	0.0015
819.69;	0.0015
819.98;	0.0014
820.28;	0.0014
820.58;	0.0014
820.88;	0.0014
821.18;	0.0014
821.47;	0.0014
821.77;	0.0014
822.07;	0.0014
822.37;	0.0013
822.66;	0.0013
822.96;	0.0013
823.26;	0.0013
823.56;	0.0013
823.86;	0.0013
824.15;	0.0013
824.45;	0.0013
824.75;	0.0012
825.05;	0.0012
825.34;	0.0012
825.64;	0.0012
825.94;	0.0012
826.24;	0.0012
826.54;	0.0012
826.83;	0.0012
827.13;	0.0012
827.43;	0.0011
827.73;	0.0011
828.03;	0.0011
828.32;	0.0011
828.62;	0.0011
828.92;	0.0011
829.22;	0.0011
829.51;	0.0011
829.81;	0.0011
830.11;	0.0010
830.41;	0.0010
830.71;	0.0010
831.00;	0.0010
831.30;	0.0010
831.60;	0.0010
831.90;	0.0010
832.19;	0.0010
832.49;	0.0010
832.79;	0.0010
833.09;	0.0009
833.39;	0.0009
833.68;	0.0009
833.98;	0.0009
834.28;	0.0009
834.58;	0.0009
834.87;	0.0009
835.17;	0.0009
835.47;	0.0009
835.77;	0.0009
836.07;	0.0009
836.36;	0.0008
836.66;	0.0008
836.96;	0.0008
837.26;	0.0008
837.55;	0.0008
837.85;	0.0008
838.15;	0.0008
838.45;	0.0008
838.75;	0.0008
839.04;	0.0008
839.34;	0.0008
839.64;	0.0008
839.94;	0.0007
840.24;	0.0007
840.53;	0.0007
840.83;	0.0007
841.13;	0.0007
841.43;	0.0007
841.72;	0.0007
842.02;	0.0007
842.32;	0.0007
842.62;	0.0007
842.92;	0.0007
843.21;	0.0007
843.51;	0.0007
843.81;	0.0006
844.11;	0.0006
844.40;	0.0006
844.70;	0.0006
845.00;	0.0006
