wavelength, nm;	absorption
372.00;	0.6336
372.28;	0.6422
372.56;	0.6510
372.84;	0.6598
373.12;	0.6688
373.41;	0.6778
373.69;	0.6869
373.97;	0.6960
374.25;	0.7053
374.53;	0.7146
374.81;	0.7241
375.09;	0.7336
375.37;	0.7432
375.65;	0.7529
375.94;	0.7626
376.22;	0.7725
376.50;	0.7824
376.78;	0.7924
377.06;	0.8025
377.34;	0.8127
377.62;	0.8230
377.90;	0.8334
378.18;	0.8438
378.47;	0.8543
378.75;	0.8649
379.03;	0.8756
379.31;	0.8864
379.59;	0.8973
379.87;	0.9082
380.15;	0.9192
380.43;	0.9303
380.72;	0.9415
381.00;	0.9528
381.28;	0.9642
381.56;	0.9756
381.84;	0.9871
382.12;	0.9987
382.40;	1.0104
382.68;	1.0222
382.96;	1.0340
383.25;	1.0460
383.53;	1.0580
383.81;	1.0700
384.09;	1.0822
384.37;	1.0944
384.65;	1.1068
384.93;	1.1192
385.21;	1.1316
385.49;	1.1442
385.78;	1.1568
386.06;	1.1695
386.34;	1.1823
386.62;	1.1951
386.90;	1.2081
387.18;	1.2210
387.46;	1.2341
387.74;	1.2473
388.02;	1.2605
388.31;	1.2737
388.59;	1.2871
388.87;	1.3005
389.15;	1.3140
389.43;	1.3276
389.71;	1.3412
389.99;	1.3549
390.27;	1.3686
390.55;	1.3824
390.84;	1.3963
391.12;	1.4102
391.40;	1.4242
391.68;	1.4383
391.96;	1.4524
392.24;	1.4666
392.52;	1.4808
392.80;	1.4951
393.08;	1.5095
393.37;	1.5239
393.65;	1.5383
393.93;	1.5529
394.21;	1.5674
394.49;	1.5820
394.77;	1.5967
395.05;	1.6114
395.33;	1.6261
395.62;	1.6409
395.90;	1.6558
396.18;	1.6707
396.46;	1.6856
396.74;	1.7005
397.02;	1.7155
397.30;	1.7306
397.58;	1.7457
397.86;	1.7608
398.15;	1.7759
398.43;	1.7911
398.71;	1.8063
398.99;	1.8216
399.27;	1.8368
399.55;	1.8521
399.83;	1.8674
400.11;	1.8828
400.39;	1.8981
400.68;	1.9135
400.96;	1.9289
401.24;	1.9444
401.52;	1.9598
401.80;	1.9752
402.08;	1.9907
402.36;	2.0062
402.64;	2.0217
402.92;	2.0372
403.21;	2.0527
403.49;	2.0682
403.77;	2.0837
404.05;	2.0992
404.33;	2.1147
404.61;	2.1302
404.89;	2.1457
405.17;	2.1612
405.45;	2.1767
405.74;	2.1922
406.02;	2.2077
406.30;	2.2231
406.58;	2.2386
406.86;	2.2540
407.14;	2.2694
407.42;	2.2848
407.70;	2.3002
407.98;	2.3155
408.27;	2.3308
408.55;	2.3461
408.83;	2.3614
409.11;	2.3766
409.39;	2.3918
409.67;	2.4070
409.95;	2.4221
410.23;	2.4372
410.52;	2.4523
410.80;	2.4673
411.08;	2.4823
411.36;	2.4972
411.64;	2.5120
411.92;	2.5269
412.20;	2.5416
412.48;	2.5564
412.76;	2.5710
413.05;	2.5856
413.33;	2.6002
413.61;	2.6147
413.89;	2.6291
414.17;	2.6434
414.45;	2.6577
414.73;	2.6719
415.01;	2.6861
415.29;	2.7002
415.58;	2.7142
415.86;	2.7281
416.14;	2.7419
416.42;	2.7557
416.70;	2.7694
416.98;	2.7830
417.26;	2.7965
417.54;	2.8099
417.82;	2.8233
418.11;	2.8365
418.39;	2.8497
418.67;	2.8627
418.95;	2.8757
419.23;	2.8885
419.51;	2.9013
419.79;	2.9139
420.07;	2.9265
420.35;	2.9389
420.64;	2.9512
420.92;	2.9635
421.20;	2.9756
421.48;	2.9876
421.76;	2.9994
422.04;	3.0112
422.32;	3.0228
422.60;	3.0344
422.88;	3.0458
423.17;	3.0570
423.45;	3.0682
423.73;	3.0792
424.01;	3.0901
424.29;	3.1008
424.57;	3.1115
424.85;	3.1220
425.13;	3.1323
425.42;	3.1425
425.70;	3.1526
425.98;	3.1625
426.26;	3.1723
426.54;	3.1820
426.82;	3.1915
427.10;	3.2009
427.38;	3.2101
427.66;	3.2191
427.95;	3.2280
428.23;	3.2368
428.51;	3.2454
428.79;	3.2538
429.07;	3.2621
429.35;	3.2703
429.63;	3.2782
429.91;	3.2861
430.19;	3.2937
430.48;	3.3012
430.76;	3.3085
431.04;	3.3157
431.32;	3.3227
431.60;	3.3295
431.88;	3.3362
432.16;	3.3427
432.44;	3.3490
432.72;	3.3551
433.01;	3.3611
433.29;	3.3669
433.57;	3.3725
433.85;	3.3780
434.13;	3.3832
434.41;	3.3883
434.69;	3.3933
434.97;	3.3980
435.25;	3.4026
435.54;	3.4069
435.82;	3.4111
436.10;	3.4151
436.38;	3.4190
436.66;	3.4226
436.94;	3.4261
437.22;	3.4294
437.50;	3.4325
437.78;	3.4354
438.07;	3.4381
438.35;	3.4407
438.63;	3.4430
438.91;	3.4452
439.19;	3.4472
439.47;	3.4490
439.75;	3.4506
440.03;	3.4520
440.32;	3.4532
440.60;	3.4542
440.88;	3.4551
441.16;	3.4558
441.44;	3.4562
441.72;	3.4565
442.00;	3.4566
442.28;	3.4565
442.56;	3.4562
442.85;	3.4558
443.13;	3.4551
443.41;	3.4543
443.69;	3.4532
443.97;	3.4520
444.25;	3.4506
444.53;	3.4490
444.81;	3.4472
445.09;	3.4452
445.38;	3.4430
445.66;	3.4407
445.94;	3.4381
446.22;	3.4354
446.50;	3.4325
446.78;	3.4294
447.06;	3.4261
447.34;	3.4226
447.62;	3.4190
447.91;	3.4152
448.19;	3.4111
448.47;	3.4070
448.75;	3.4026
449.03;	3.3980
449.31;	3.3933
449.59;	3.3884
449.87;	3.3833
450.15;	3.3780
450.44;	3.3725
450.72;	3.3669
451.00;	3.3611
451.28;	3.3551
451.56;	3.3490
451.84;	3.3427
452.12;	3.3362
452.40;	3.3295
452.68;	3.3227
452.97;	3.3157
453.25;	3.3086
453.53;	3.3012
453.81;	3.2938
454.09;	3.2861
454.37;	3.2783
454.65;	3.2703
454.93;	3.2622
455.22;	3.2539
455.50;	3.2455
455.78;	3.2369
456.06;	3.2281
456.34;	3.2192
456.62;	3.2101
456.90;	3.2009
457.18;	3.1916
457.46;	3.1821
457.75;	3.1724
458.03;	3.1626
458.31;	3.1527
458.59;	3.1426
458.87;	3.1324
459.15;	3.1220
459.43;	3.1116
459.71;	3.1009
459.99;	3.0902
460.28;	3.0793
460.56;	3.0683
460.84;	3.0571
461.12;	3.0459
461.40;	3.0345
461.68;	3.0230
461.96;	3.0113
462.24;	2.9996
462.52;	2.9877
462.81;	2.9757
463.09;	2.9636
463.37;	2.9514
463.65;	2.9390
463.93;	2.9266
464.21;	2.9141
464.49;	2.9014
464.77;	2.8887
465.05;	2.8758
465.34;	2.8629
465.62;	2.8498
465.90;	2.8367
466.18;	2.8234
466.46;	2.8101
466.74;	2.7967
467.02;	2.7832
467.30;	2.7696
467.58;	2.7559
467.87;	2.7421
468.15;	2.7283
468.43;	2.7144
468.71;	2.7004
468.99;	2.6863
469.27;	2.6722
469.55;	2.6580
469.83;	2.6437
470.12;	2.6293
470.40;	2.6149
470.68;	2.6004
470.96;	2.5859
471.24;	2.5713
471.52;	2.5566
471.80;	2.5419
472.08;	2.5272
472.36;	2.5123
472.65;	2.4975
472.93;	2.4826
473.21;	2.4676
473.49;	2.4526
473.77;	2.4375
474.05;	2.4225
474.33;	2.4073
474.61;	2.3922
474.89;	2.3770
475.18;	2.3617
475.46;	2.3465
475.74;	2.3312
476.02;	2.3159
476.30;	2.3005
476.58;	2.2852
476.86;	2.2698
477.14;	2.2544
477.42;	2.2390
477.71;	2.2235
477.99;	2.2081
478.27;	2.1926
478.55;	2.1772
478.83;	2.1617
479.11;	2.1462
479.39;	2.1307
479.67;	2.1152
479.95;	2.0997
480.24;	2.0842
480.52;	2.0687
480.80;	2.0532
481.08;	2.0377
481.36;	2.0222
481.64;	2.0067
481.92;	1.9913
482.20;	1.9758
482.48;	1.9604
482.77;	1.9449
483.05;	1.9295
483.33;	1.9141
483.61;	1.8988
483.89;	1.8834
484.17;	1.8681
484.45;	1.8528
484.73;	1.8375
485.02;	1.8222
485.30;	1.8070
485.58;	1.7918
485.86;	1.7766
486.14;	1.7615
486.42;	1.7464
486.70;	1.7313
486.98;	1.7163
487.26;	1.7013
487.55;	1.6864
487.83;	1.6714
488.11;	1.6566
488.39;	1.6418
488.67;	1.6270
488.95;	1.6122
489.23;	1.5975
489.51;	1.5829
489.79;	1.5683
490.08;	1.5538
490.36;	1.5393
490.64;	1.5248
490.92;	1.5104
491.20;	1.4961
491.48;	1.4818
491.76;	1.4676
492.04;	1.4534
492.32;	1.4393
492.61;	1.4253
492.89;	1.4113
493.17;	1.3974
493.45;	1.3835
493.73;	1.3697
494.01;	1.3560
494.29;	1.3423
494.57;	1.3287
494.85;	1.3152
495.14;	1.3017
495.42;	1.2883
495.70;	1.2750
495.98;	1.2617
496.26;	1.2485
496.54;	1.2354
496.82;	1.2223
497.10;	1.2094
497.38;	1.1965
497.67;	1.1836
497.95;	1.1709
498.23;	1.1582
498.51;	1.1456
498.79;	1.1330
499.07;	1.1206
499.35;	1.1082
499.63;	1.0959
499.92;	1.0837
500.20;	1.0716
500.48;	1.0595
500.76;	1.0475
501.04;	1.0356
501.32;	1.0238
501.60;	1.0120
501.88;	1.0004
502.16;	0.9888
502.45;	0.9773
502.73;	0.9659
503.01;	0.9545
503.29;	0.9433
503.57;	0.9321
503.85;	0.9210
504.13;	0.9100
504.41;	0.8991
504.69;	0.8883
504.98;	0.8775
505.26;	0.8668
505.54;	0.8563
505.82;	0.8458
506.10;	0.8353
506.38;	0.8250
506.66;	0.8148
506.94;	0.8046
507.22;	0.7945
507.51;	0.7845
507.79;	0.7746
508.07;	0.7648
508.35;	0.7550
508.63;	0.7454
508.91;	0.7358
509.19;	0.7263
509.47;	0.7169
509.75;	0.7076
510.04;	0.6984
510.32;	0.6892
510.60;	0.6802
510.88;	0.6712
511.16;	0.6623
511.44;	0.6535
511.72;	0.6447
512.00;	0.6361
512.28;	0.6275
512.57;	0.6191
512.85;	0.6107
513.13;	0.6023
513.41;	0.5941
513.69;	0.5860
513.97;	0.5779
514.25;	0.5699
514.53;	0.5620
514.82;	0.5542
515.10;	0.5464
515.38;	0.5388
515.66;	0.5312
515.94;	0.5237
516.22;	0.5163
516.50;	0.5089
516.78;	0.5017
517.06;	0.4945
517.35;	0.4874
517.63;	0.4803
517.91;	0.4734
518.19;	0.4665
518.47;	0.4597
518.75;	0.4530
519.03;	0.4463
519.31;	0.4398
519.59;	0.4333
519.88;	0.4269
520.16;	0.4205
520.44;	0.4142
520.72;	0.4080
521.00;	0.4019
521.28;	0.3959
521.56;	0.3899
521.84;	0.3840
522.12;	0.3781
522.41;	0.3724
522.69;	0.3667
522.97;	0.3611
523.25;	0.3555
523.53;	0.3500
523.81;	0.3446
524.09;	0.3393
524.37;	0.3340
524.65;	0.3288
524.94;	0.3236
525.22;	0.3185
525.50;	0.3135
525.78;	0.3086
526.06;	0.3037
526.34;	0.2988
526.62;	0.2941
526.90;	0.2894
527.18;	0.2848
527.47;	0.2802
527.75;	0.2757
528.03;	0.2712
528.31;	0.2668
528.59;	0.2625
528.87;	0.2582
529.15;	0.2540
529.43;	0.2499
529.72;	0.2458
530.00;	0.2418
530.28;	0.2378
530.56;	0.2339
530.84;	0.2300
531.12;	0.2262
531.40;	0.2224
531.68;	0.2187
531.96;	0.2151
532.25;	0.2115
532.53;	0.2079
532.81;	0.2044
533.09;	0.2010
533.37;	0.1976
533.65;	0.1943
533.93;	0.1910
534.21;	0.1878
534.49;	0.1846
534.78;	0.1814
535.06;	0.1783
535.34;	0.1753
535.62;	0.1723
535.90;	0.1693
536.18;	0.1664
536.46;	0.1636
536.74;	0.1608
537.02;	0.1580
537.31;	0.1553
537.59;	0.1526
537.87;	0.1499
538.15;	0.1473
538.43;	0.1448
538.71;	0.1423
538.99;	0.1398
539.27;	0.1374
539.55;	0.1350
539.84;	0.1326
540.12;	0.1303
540.40;	0.1280
540.68;	0.1258
540.96;	0.1236
541.24;	0.1215
541.52;	0.1193
541.80;	0.1172
542.08;	0.1152
542.37;	0.1132
542.65;	0.1112
542.93;	0.1092
543.21;	0.1073
543.49;	0.1055
543.77;	0.1036
544.05;	0.1018
544.33;	0.1000
544.62;	0.0983
544.90;	0.0965
545.18;	0.0949
545.46;	0.0932
545.74;	0.0916
546.02;	0.0900
546.30;	0.0884
546.58;	0.0869
546.86;	0.0854
547.15;	0.0839
547.43;	0.0824
547.71;	0.0810
547.99;	0.0796
548.27;	0.0782
548.55;	0.0769
548.83;	0.0756
549.11;	0.0743
549.39;	0.0730
549.68;	0.0718
549.96;	0.0706
550.24;	0.0694
550.52;	0.0682
550.80;	0.0670
551.08;	0.0659
551.36;	0.0648
551.64;	0.0637
551.92;	0.0627
552.21;	0.0617
552.49;	0.0606
552.77;	0.0596
553.05;	0.0587
553.33;	0.0577
553.61;	0.0568
553.89;	0.0559
554.17;	0.0550
554.45;	0.0541
554.74;	0.0533
555.02;	0.0524
555.30;	0.0516
555.58;	0.0508
555.86;	0.0500
556.14;	0.0493
556.42;	0.0485
556.70;	0.0478
556.98;	0.0471
557.27;	0.0464
557.55;	0.0457
557.83;	0.0450
558.11;	0.0444
558.39;	0.0437
558.67;	0.0431
558.95;	0.0425
559.23;	0.0419
559.52;	0.0414
559.80;	0.0408
560.08;	0.0402
560.36;	0.0397
560.64;	0.0392
560.92;	0.0387
561.20;	0.0382
561.48;	0.0377
561.76;	0.0372
562.05;	0.0368
562.33;	0.0363
562.61;	0.0359
562.89;	0.0355
563.17;	0.0351
563.45;	0.0347
563.73;	0.0343
564.01;	0.0339
564.29;	0.0335
564.58;	0.0332
564.86;	0.0328
565.14;	0.0325
565.42;	0.0322
565.70;	0.0319
565.98;	0.0316
566.26;	0.0313
566.54;	0.0310
566.82;	0.0307
567.11;	0.0304
567.39;	0.0302
567.67;	0.0299
567.95;	0.0297
568.23;	0.0294
568.51;	0.0292
568.79;	0.0290
569.07;	0.0288
569.35;	0.0286
569.64;	0.0284
569.92;	0.0282
570.20;	0.0280
570.48;	0.0278
570.76;	0.0277
571.04;	0.0275
571.32;	0.0273
571.60;	0.0272
571.88;	0.0271
572.17;	0.0269
572.45;	0.0268
572.73;	0.0267
573.01;	0.0266
573.29;	0.0264
573.57;	0.0263
573.85;	0.0262
574.13;	0.0261
574.42;	0.0261
574.70;	0.0260
574.98;	0.0259
575.26;	0.0258
575.54;	0.0258
575.82;	0.0257
576.10;	0.0256
576.38;	0.0256
576.66;	0.0255
576.95;	0.0255
577.23;	0.0255
577.51;	0.0254
577.79;	0.0254
578.07;	0.0254
578.35;	0.0253
578.63;	0.0253
578.91;	0.0253
579.19;	0.0253
579.48;	0.0253
579.76;	0.0253
580.04;	0.0253
580.32;	0.0253
580.60;	0.0253
580.88;	0.0253
581.16;	0.0253
581.44;	0.0254
581.72;	0.0254
582.01;	0.0254
582.29;	0.0254
582.57;	0.0255
582.85;	0.0255
583.13;	0.0255
583.41;	0.0256
583.69;	0.0256
583.97;	0.0257
584.25;	0.0257
584.54;	0.0258
584.82;	0.0258
585.10;	0.0259
585.38;	0.0259
585.66;	0.0260
585.94;	0.0261
586.22;	0.0261
586.50;	0.0262
586.78;	0.0263
587.07;	0.0263
587.35;	0.0264
587.63;	0.0265
587.91;	0.0266
588.19;	0.0267
588.47;	0.0267
588.75;	0.0268
589.03;	0.0269
589.32;	0.0270
589.60;	0.0271
589.88;	0.0272
590.16;	0.0273
590.44;	0.0274
590.72;	0.0275
591.00;	0.0276
591.28;	0.0277
591.56;	0.0278
591.85;	0.0279
592.13;	0.0280
592.41;	0.0281
592.69;	0.0282
592.97;	0.0283
593.25;	0.0284
593.53;	0.0285
593.81;	0.0287
594.09;	0.0288
594.38;	0.0289
594.66;	0.0290
594.94;	0.0291
595.22;	0.0293
595.50;	0.0294
595.78;	0.0295
596.06;	0.0296
596.34;	0.0297
596.62;	0.0299
596.91;	0.0300
597.19;	0.0301
597.47;	0.0303
597.75;	0.0304
598.03;	0.0305
598.31;	0.0307
598.59;	0.0308
598.87;	0.0309
599.15;	0.0311
599.44;	0.0312
599.72;	0.0313
600.00;	0.0315
600.28;	0.0316
600.56;	0.0317
600.84;	0.0319
601.12;	0.0320
601.40;	0.0322
601.68;	0.0323
601.97;	0.0324
602.25;	0.0326
602.53;	0.0327
602.81;	0.0329
603.09;	0.0330
603.37;	0.0332
603.65;	0.0333
603.93;	0.0335
604.22;	0.0336
604.50;	0.0338
604.78;	0.0339
605.06;	0.0341
605.34;	0.0342
605.62;	0.0344
605.90;	0.0345
606.18;	0.0347
606.46;	0.0348
606.75;	0.0350
607.03;	0.0351
607.31;	0.0353
607.59;	0.0354
607.87;	0.0356
608.15;	0.0357
608.43;	0.0359
608.71;	0.0360
608.99;	0.0362
609.28;	0.0363
609.56;	0.0365
609.84;	0.0367
610.12;	0.0368
610.40;	0.0370
610.68;	0.0371
610.96;	0.0373
611.24;	0.0374
611.52;	0.0376
611.81;	0.0378
612.09;	0.0379
612.37;	0.0381
612.65;	0.0382
612.93;	0.0384
613.21;	0.0385
613.49;	0.0387
613.77;	0.0389
614.05;	0.0390
614.34;	0.0392
614.62;	0.0393
614.90;	0.0395
615.18;	0.0397
615.46;	0.0398
615.74;	0.0400
616.02;	0.0401
616.30;	0.0403
616.58;	0.0405
616.87;	0.0406
617.15;	0.0408
617.43;	0.0409
617.71;	0.0411
617.99;	0.0413
618.27;	0.0414
618.55;	0.0416
618.83;	0.0417
619.12;	0.0419
619.40;	0.0421
619.68;	0.0422
619.96;	0.0424
620.24;	0.0425
620.52;	0.0427
620.80;	0.0429
621.08;	0.0430
621.36;	0.0432
621.65;	0.0433
621.93;	0.0435
622.21;	0.0436
622.49;	0.0438
622.77;	0.0440
623.05;	0.0441
623.33;	0.0443
623.61;	0.0444
623.89;	0.0446
624.18;	0.0448
624.46;	0.0449
624.74;	0.0451
625.02;	0.0452
625.30;	0.0454
625.58;	0.0455
625.86;	0.0457
626.14;	0.0459
626.42;	0.0460
626.71;	0.0462
626.99;	0.0463
627.27;	0.0465
627.55;	0.0466
627.83;	0.0468
628.11;	0.0469
628.39;	0.0471
628.67;	0.0473
628.95;	0.0474
629.24;	0.0476
629.52;	0.0477
629.80;	0.0479
630.08;	0.0480
630.36;	0.0482
630.64;	0.0483
630.92;	0.0485
631.20;	0.0486
631.48;	0.0488
631.77;	0.0489
632.05;	0.0491
632.33;	0.0492
632.61;	0.0494
632.89;	0.0495
633.17;	0.0497
633.45;	0.0498
633.73;	0.0500
634.02;	0.0501
634.30;	0.0503
634.58;	0.0504
634.86;	0.0506
635.14;	0.0507
635.42;	0.0508
635.70;	0.0510
635.98;	0.0511
636.26;	0.0513
636.55;	0.0514
636.83;	0.0516
637.11;	0.0517
637.39;	0.0519
637.67;	0.0520
637.95;	0.0521
638.23;	0.0523
638.51;	0.0524
638.79;	0.0526
639.08;	0.0527
639.36;	0.0528
639.64;	0.0530
639.92;	0.0531
640.20;	0.0532
640.48;	0.0534
640.76;	0.0535
641.04;	0.0536
641.32;	0.0538
641.61;	0.0539
641.89;	0.0540
642.17;	0.0542
642.45;	0.0543
642.73;	0.0544
643.01;	0.0546
643.29;	0.0547
643.57;	0.0548
643.85;	0.0550
644.14;	0.0551
644.42;	0.0552
644.70;	0.0553
644.98;	0.0555
645.26;	0.0556
645.54;	0.0557
645.82;	0.0558
646.10;	0.0560
646.38;	0.0561
646.67;	0.0562
646.95;	0.0563
647.23;	0.0564
647.51;	0.0566
647.79;	0.0567
648.07;	0.0568
648.35;	0.0569
648.63;	0.0570
648.92;	0.0571
649.20;	0.0573
649.48;	0.0574
649.76;	0.0575
650.04;	0.0576
650.32;	0.0577
650.60;	0.0578
650.88;	0.0579
651.16;	0.0580
651.45;	0.0581
651.73;	0.0582
652.01;	0.0584
652.29;	0.0585
652.57;	0.0586
652.85;	0.0587
653.13;	0.0588
653.41;	0.0589
653.69;	0.0590
653.98;	0.0591
654.26;	0.0592
654.54;	0.0593
654.82;	0.0594
655.10;	0.0595
655.38;	0.0596
655.66;	0.0597
655.94;	0.0598
656.22;	0.0598
656.51;	0.0599
656.79;	0.0600
657.07;	0.0601
657.35;	0.0602
657.63;	0.0603
657.91;	0.0604
658.19;	0.0605
658.47;	0.0606
658.75;	0.0606
659.04;	0.0607
659.32;	0.0608
659.60;	0.0609
659.88;	0.0610
660.16;	0.0611
660.44;	0.0611
660.72;	0.0612
661.00;	0.0613
661.28;	0.0614
661.57;	0.0614
661.85;	0.0615
662.13;	0.0616
662.41;	0.0617
662.69;	0.0617
662.97;	0.0618
663.25;	0.0619
663.53;	0.0619
663.82;	0.0620
664.10;	0.0621
664.38;	0.0621
664.66;	0.0622
664.94;	0.0623
665.22;	0.0623
665.50;	0.0624
665.78;	0.0624
666.06;	0.0625
666.35;	0.0626
666.63;	0.0626
666.91;	0.0627
667.19;	0.0627
667.47;	0.0628
667.75;	0.0628
668.03;	0.0629
668.31;	0.0629
668.59;	0.0630
668.88;	0.0630
669.16;	0.0631
669.44;	0.0631
669.72;	0.0632
670.00;	0.0632
670.28;	0.0633
670.56;	0.0633
670.84;	0.0633
671.12;	0.0634
671.41;	0.0634
671.69;	0.0635
671.97;	0.0635
672.25;	0.0635
672.53;	0.0636
672.81;	0.0636
673.09;	0.0636
673.37;	0.0637
673.65;	0.0637
673.94;	0.0637
674.22;	0.0638
674.50;	0.0638
674.78;	0.0638
675.06;	0.0638
675.34;	0.0639
675.62;	0.0639
675.90;	0.0639
676.18;	0.0639
676.47;	0.0639
676.75;	0.0639
677.03;	0.0640
677.31;	0.0640
677.59;	0.0640
677.87;	0.0640
678.15;	0.0640
678.43;	0.0640
678.72;	0.0640
679.00;	0.0640
679.28;	0.0641
679.56;	0.0641
679.84;	0.0641
680.12;	0.0641
680.40;	0.0641
680.68;	0.0641
680.96;	0.0641
681.25;	0.0641
681.53;	0.0641
681.81;	0.0641
682.09;	0.0641
682.37;	0.0641
682.65;	0.0641
682.93;	0.0641
683.21;	0.0640
683.49;	0.0640
683.78;	0.0640
684.06;	0.0640
684.34;	0.0640
684.62;	0.0640
684.90;	0.0640
685.18;	0.0640
685.46;	0.0639
685.74;	0.0639
686.02;	0.0639
686.31;	0.0639
686.59;	0.0639
686.87;	0.0638
687.15;	0.0638
687.43;	0.0638
687.71;	0.0638
687.99;	0.0637
688.27;	0.0637
688.55;	0.0637
688.84;	0.0636
689.12;	0.0636
689.40;	0.0636
689.68;	0.0635
689.96;	0.0635
690.24;	0.0635
690.52;	0.0634
690.80;	0.0634
691.08;	0.0634
691.37;	0.0633
691.65;	0.0633
691.93;	0.0632
692.21;	0.0632
692.49;	0.0631
692.77;	0.0631
693.05;	0.0630
693.33;	0.0630
693.62;	0.0630
693.90;	0.0629
694.18;	0.0629
694.46;	0.0628
694.74;	0.0627
695.02;	0.0627
695.30;	0.0626
695.58;	0.0626
695.86;	0.0625
696.15;	0.0625
696.43;	0.0624
696.71;	0.0623
696.99;	0.0623
697.27;	0.0622
697.55;	0.0622
697.83;	0.0621
698.11;	0.0620
698.39;	0.0620
698.68;	0.0619
698.96;	0.0618
699.24;	0.0617
699.52;	0.0617
699.80;	0.0616
700.08;	0.0615
700.36;	0.0615
700.64;	0.0614
700.92;	0.0613
701.21;	0.0612
701.49;	0.0612
701.77;	0.0611
702.05;	0.0610
702.33;	0.0609
702.61;	0.0608
702.89;	0.0607
703.17;	0.0607
703.45;	0.0606
703.74;	0.0605
704.02;	0.0604
704.30;	0.0603
704.58;	0.0602
704.86;	0.0601
705.14;	0.0601
705.42;	0.0600
705.70;	0.0599
705.98;	0.0598
706.27;	0.0597
706.55;	0.0596
706.83;	0.0595
707.11;	0.0594
707.39;	0.0593
707.67;	0.0592
707.95;	0.0591
708.23;	0.0590
708.52;	0.0589
708.80;	0.0588
709.08;	0.0587
709.36;	0.0586
709.64;	0.0585
709.92;	0.0584
710.20;	0.0583
710.48;	0.0582
710.76;	0.0581
711.05;	0.0579
711.33;	0.0578
711.61;	0.0577
711.89;	0.0576
712.17;	0.0575
712.45;	0.0574
712.73;	0.0573
713.01;	0.0572
713.29;	0.0571
713.58;	0.0569
713.86;	0.0568
714.14;	0.0567
714.42;	0.0566
714.70;	0.0565
714.98;	0.0563
715.26;	0.0562
715.54;	0.0561
715.82;	0.0560
716.11;	0.0559
716.39;	0.0557
716.67;	0.0556
716.95;	0.0555
717.23;	0.0554
717.51;	0.0552
717.79;	0.0551
718.07;	0.0550
718.35;	0.0549
718.64;	0.0547
718.92;	0.0546
719.20;	0.0545
719.48;	0.0543
719.76;	0.0542
720.04;	0.0541
720.32;	0.0539
720.60;	0.0538
720.88;	0.0537
721.17;	0.0535
721.45;	0.0534
721.73;	0.0533
722.01;	0.0531
722.29;	0.0530
722.57;	0.0529
722.85;	0.0527
723.13;	0.0526
723.42;	0.0524
723.70;	0.0523
723.98;	0.0522
724.26;	0.0520
724.54;	0.0519
724.82;	0.0517
725.10;	0.0516
725.38;	0.0515
725.66;	0.0513
725.95;	0.0512
726.23;	0.0510
726.51;	0.0509
726.79;	0.0507
727.07;	0.0506
727.35;	0.0504
727.63;	0.0503
727.91;	0.0501
728.19;	0.0500
728.48;	0.0499
728.76;	0.0497
729.04;	0.0496
729.32;	0.0494
729.60;	0.0493
729.88;	0.0491
730.16;	0.0490
730.44;	0.0488
730.72;	0.0487
731.01;	0.0485
731.29;	0.0483
731.57;	0.0482
731.85;	0.0480
732.13;	0.0479
732.41;	0.0477
732.69;	0.0476
732.97;	0.0474
733.25;	0.0473
733.54;	0.0471
733.82;	0.0470
734.10;	0.0468
734.38;	0.0467
734.66;	0.0465
734.94;	0.0463
735.22;	0.0462
735.50;	0.0460
735.78;	0.0459
736.07;	0.0457
736.35;	0.0456
736.63;	0.0454
736.91;	0.0452
737.19;	0.0451
737.47;	0.0449
737.75;	0.0448
738.03;	0.0446
738.32;	0.0444
738.60;	0.0443
738.88;	0.0441
739.16;	0.0440
739.44;	0.0438
739.72;	0.0436
740.00;	0.0435
740.28;	0.0433
740.56;	0.0432
740.85;	0.0430
741.13;	0.0428
741.41;	0.0427
741.69;	0.0425
741.97;	0.0424
742.25;	0.0422
742.53;	0.0420
742.81;	0.0419
743.09;	0.0417
743.38;	0.0415
743.66;	0.0414
743.94;	0.0412
744.22;	0.0411
744.50;	0.0409
744.78;	0.0407
745.06;	0.0406
745.34;	0.0404
745.62;	0.0402
745.91;	0.0401
746.19;	0.0399
746.47;	0.0398
746.75;	0.0396
747.03;	0.0394
747.31;	0.0393
747.59;	0.0391
747.87;	0.0389
748.15;	0.0388
748.44;	0.0386
748.72;	0.0384
749.00;	0.0383
749.28;	0.0381
749.56;	0.0380
749.84;	0.0378
750.12;	0.0376
750.40;	0.0375
750.68;	0.0373
750.97;	0.0371
751.25;	0.0370
751.53;	0.0368
751.81;	0.0367
752.09;	0.0365
752.37;	0.0363
752.65;	0.0362
752.93;	0.0360
753.22;	0.0358
753.50;	0.0357
753.78;	0.0355
754.06;	0.0354
754.34;	0.0352
754.62;	0.0350
754.90;	0.0349
755.18;	0.0347
755.46;	0.0346
755.75;	0.0344
756.03;	0.0342
756.31;	0.0341
756.59;	0.0339
756.87;	0.0337
757.15;	0.0336
757.43;	0.0334
757.71;	0.0333
757.99;	0.0331
758.28;	0.0329
758.56;	0.0328
758.84;	0.0326
759.12;	0.0325
759.40;	0.0323
759.68;	0.0322
759.96;	0.0320
760.24;	0.0318
760.52;	0.0317
760.81;	0.0315
761.09;	0.0314
761.37;	0.0312
761.65;	0.0311
761.93;	0.0309
762.21;	0.0307
762.49;	0.0306
762.77;	0.0304
763.05;	0.0303
763.34;	0.0301
763.62;	0.0300
763.90;	0.0298
764.18;	0.0297
764.46;	0.0295
764.74;	0.0293
765.02;	0.0292
765.30;	0.0290
765.58;	0.0289
765.87;	0.0287
766.15;	0.0286
766.43;	0.0284
766.71;	0.0283
766.99;	0.0281
767.27;	0.0280
767.55;	0.0278
767.83;	0.0277
768.12;	0.0275
768.40;	0.0274
768.68;	0.0272
768.96;	0.0271
769.24;	0.0269
769.52;	0.0268
769.80;	0.0266
770.08;	0.0265
770.36;	0.0263
770.65;	0.0262
770.93;	0.0260
771.21;	0.0259
771.49;	0.0257
771.77;	0.0256
772.05;	0.0254
772.33;	0.0253
772.61;	0.0252
772.89;	0.0250
773.18;	0.0249
773.46;	0.0247
773.74;	0.0246
774.02;	0.0244
774.30;	0.0243
774.58;	0.0242
774.86;	0.0240
775.14;	0.0239
775.42;	0.0237
775.71;	0.0236
775.99;	0.0235
776.27;	0.0233
776.55;	0.0232
776.83;	0.0230
777.11;	0.0229
777.39;	0.0228
777.67;	0.0226
777.95;	0.0225
778.24;	0.0224
778.52;	0.0222
778.80;	0.0221
779.08;	0.0219
779.36;	0.0218
779.64;	0.0217
779.92;	0.0215
780.20;	0.0214
780.48;	0.0213
780.77;	0.0211
781.05;	0.0210
781.33;	0.0209
781.61;	0.0208
781.89;	0.0206
782.17;	0.0205
782.45;	0.0204
782.73;	0.0202
783.02;	0.0201
783.30;	0.0200
783.58;	0.0198
783.86;	0.0197
784.14;	0.0196
784.42;	0.0195
784.70;	0.0193
784.98;	0.0192
785.26;	0.0191
785.55;	0.0190
785.83;	0.0188
786.11;	0.0187
786.39;	0.0186
786.67;	0.0185
786.95;	0.0184
787.23;	0.0182
787.51;	0.0181
787.79;	0.0180
788.08;	0.0179
788.36;	0.0177
788.64;	0.0176
788.92;	0.0175
789.20;	0.0174
789.48;	0.0173
789.76;	0.0172
790.04;	0.0170
790.32;	0.0169
790.61;	0.0168
790.89;	0.0167
791.17;	0.0166
791.45;	0.0165
791.73;	0.0164
792.01;	0.0162
792.29;	0.0161
792.57;	0.0160
792.85;	0.0159
793.14;	0.0158
793.42;	0.0157
793.70;	0.0156
793.98;	0.0155
794.26;	0.0154
794.54;	0.0152
794.82;	0.0151
795.10;	0.0150
795.38;	0.0149
795.67;	0.0148
795.95;	0.0147
796.23;	0.0146
796.51;	0.0145
796.79;	0.0144
797.07;	0.0143
797.35;	0.0142
797.63;	0.0141
797.92;	0.0140
798.20;	0.0139
798.48;	0.0138
798.76;	0.0137
799.04;	0.0136
799.32;	0.0135
799.60;	0.0134
799.88;	0.0133
800.16;	0.0132
800.45;	0.0131
800.73;	0.0130
801.01;	0.0129
801.29;	0.0128
801.57;	0.0127
801.85;	0.0126
802.13;	0.0125
802.41;	0.0124
802.69;	0.0123
802.98;	0.0122
803.26;	0.0121
803.54;	0.0120
803.82;	0.0119
804.10;	0.0118
804.38;	0.0118
804.66;	0.0117
804.94;	0.0116
805.22;	0.0115
805.51;	0.0114
805.79;	0.0113
806.07;	0.0112
806.35;	0.0111
806.63;	0.0110
806.91;	0.0110
807.19;	0.0109
807.47;	0.0108
807.75;	0.0107
808.04;	0.0106
808.32;	0.0105
808.60;	0.0105
808.88;	0.0104
809.16;	0.0103
809.44;	0.0102
809.72;	0.0101
810.00;	0.0100
810.28;	0.0100
810.57;	0.0099
810.85;	0.0098
811.13;	0.0097
811.41;	0.0096
811.69;	0.0096
811.97;	0.0095
812.25;	0.0094
812.53;	0.0093
812.82;	0.0093
813.10;	0.0092
813.38;	0.0091
813.66;	0.0090
813.94;	0.0089
814.22;	0.0089
814.50;	0.0088
814.78;	0.0087
815.06;	0.0087
815.35;	0.0086
815.63;	0.0085
815.91;	0.0084
816.19;	0.0084
816.47;	0.0083
816.75;	0.0082
817.03;	0.0082
817.31;	0.0081
817.59;	0.0080
817.88;	0.0080
818.16;	0.0079
818.44;	0.0078
818.72;	0.0077
819.00;	0.0077
