wavelength, nm;	absorption
396.00;	1.7010
396.24;	1.7143
396.49;	1.7275
396.73;	1.7408
396.98;	1.7541
397.22;	1.7675
397.46;	1.7808
397.71;	1.7943
397.95;	1.8077
398.19;	1.8211
398.44;	1.8346
398.68;	1.8481
398.93;	1.8617
399.17;	1.8752
399.41;	1.8888
399.66;	1.9024
399.90;	1.9160
400.14;	1.9296
400.39;	1.9432
400.63;	1.9569
400.88;	1.9706
401.12;	1.9843
401.36;	1.9980
401.61;	2.0117
401.85;	2.0254
402.09;	2.0391
402.34;	2.0529
402.58;	2.0666
402.83;	2.0804
403.07;	2.0942
403.31;	2.1079
403.56;	2.1217
403.80;	2.1355
404.05;	2.1492
404.29;	2.1630
404.53;	2.1768
404.78;	2.1905
405.02;	2.2043
405.26;	2.2181
405.51;	2.2318
405.75;	2.2456
406.00;	2.2593
406.24;	2.2730
406.48;	2.2868
406.73;	2.3005
406.97;	2.3142
407.21;	2.3278
407.46;	2.3415
407.70;	2.3551
407.95;	2.3688
408.19;	2.3824
408.43;	2.3960
408.68;	2.4095
408.92;	2.4231
409.17;	2.4366
409.41;	2.4501
409.65;	2.4636
409.90;	2.4770
410.14;	2.4904
410.38;	2.5038
410.63;	2.5171
410.87;	2.5305
411.12;	2.5437
411.36;	2.5570
411.60;	2.5702
411.85;	2.5834
412.09;	2.5965
412.33;	2.6096
412.58;	2.6226
412.82;	2.6356
413.07;	2.6486
413.31;	2.6615
413.55;	2.6744
413.80;	2.6872
414.04;	2.7000
414.28;	2.7127
414.53;	2.7254
414.77;	2.7380
415.02;	2.7505
415.26;	2.7630
415.50;	2.7755
415.75;	2.7879
415.99;	2.8002
416.24;	2.8125
416.48;	2.8247
416.72;	2.8368
416.97;	2.8489
417.21;	2.8609
417.45;	2.8728
417.70;	2.8847
417.94;	2.8965
418.19;	2.9082
418.43;	2.9199
418.67;	2.9315
418.92;	2.9430
419.16;	2.9544
419.40;	2.9658
419.65;	2.9770
419.89;	2.9882
420.14;	2.9993
420.38;	3.0104
420.62;	3.0213
420.87;	3.0322
421.11;	3.0430
421.35;	3.0536
421.60;	3.0642
421.84;	3.0748
422.09;	3.0852
422.33;	3.0955
422.57;	3.1057
422.82;	3.1159
423.06;	3.1259
423.31;	3.1359
423.55;	3.1457
423.79;	3.1555
424.04;	3.1651
424.28;	3.1747
424.52;	3.1841
424.77;	3.1934
425.01;	3.2027
425.26;	3.2118
425.50;	3.2208
425.74;	3.2298
425.99;	3.2386
426.23;	3.2473
426.47;	3.2559
426.72;	3.2643
426.96;	3.2727
427.21;	3.2810
427.45;	3.2891
427.69;	3.2971
427.94;	3.3050
428.18;	3.3128
428.42;	3.3205
428.67;	3.3280
428.91;	3.3355
429.16;	3.3428
429.40;	3.3500
429.64;	3.3570
429.89;	3.3640
430.13;	3.3708
430.38;	3.3775
430.62;	3.3840
430.86;	3.3905
431.11;	3.3968
431.35;	3.4030
431.59;	3.4090
431.84;	3.4150
432.08;	3.4208
432.33;	3.4264
432.57;	3.4319
432.81;	3.4373
433.06;	3.4426
433.30;	3.4477
433.54;	3.4527
433.79;	3.4576
434.03;	3.4623
434.28;	3.4669
434.52;	3.4714
434.76;	3.4757
435.01;	3.4799
435.25;	3.4839
435.50;	3.4878
435.74;	3.4916
435.98;	3.4952
436.23;	3.4987
436.47;	3.5020
436.71;	3.5052
436.96;	3.5083
437.20;	3.5112
437.45;	3.5139
437.69;	3.5166
437.93;	3.5191
438.18;	3.5214
438.42;	3.5236
438.66;	3.5257
438.91;	3.5276
439.15;	3.5294
439.40;	3.5310
439.64;	3.5325
439.88;	3.5338
440.13;	3.5350
440.37;	3.5360
440.61;	3.5369
440.86;	3.5377
441.10;	3.5383
441.35;	3.5388
441.59;	3.5391
441.83;	3.5393
442.08;	3.5393
442.32;	3.5392
442.57;	3.5389
442.81;	3.5385
443.05;	3.5379
443.30;	3.5372
443.54;	3.5364
443.78;	3.5354
444.03;	3.5343
444.27;	3.5330
444.52;	3.5315
444.76;	3.5300
445.00;	3.5283
445.25;	3.5264
445.49;	3.5244
445.73;	3.5222
445.98;	3.5200
446.22;	3.5175
446.47;	3.5149
446.71;	3.5122
446.95;	3.5094
447.20;	3.5063
447.44;	3.5032
447.68;	3.4999
447.93;	3.4965
448.17;	3.4929
448.42;	3.4892
448.66;	3.4854
448.90;	3.4814
449.15;	3.4772
449.39;	3.4730
449.64;	3.4686
449.88;	3.4640
450.12;	3.4594
450.37;	3.4545
450.61;	3.4496
450.85;	3.4445
451.10;	3.4393
451.34;	3.4340
451.59;	3.4285
451.83;	3.4229
452.07;	3.4171
452.32;	3.4112
452.56;	3.4052
452.80;	3.3991
453.05;	3.3928
453.29;	3.3864
453.54;	3.3799
453.78;	3.3733
454.02;	3.3665
454.27;	3.3596
454.51;	3.3526
454.75;	3.3455
455.00;	3.3382
455.24;	3.3308
455.49;	3.3233
455.73;	3.3157
455.97;	3.3079
456.22;	3.3001
456.46;	3.2921
456.71;	3.2840
456.95;	3.2758
457.19;	3.2675
457.44;	3.2590
457.68;	3.2505
457.92;	3.2418
458.17;	3.2330
458.41;	3.2242
458.66;	3.2152
458.90;	3.2061
459.14;	3.1969
459.39;	3.1876
459.63;	3.1782
459.87;	3.1687
460.12;	3.1590
460.36;	3.1493
460.61;	3.1395
460.85;	3.1296
461.09;	3.1196
461.34;	3.1095
461.58;	3.0993
461.83;	3.0890
462.07;	3.0786
462.31;	3.0682
462.56;	3.0576
462.80;	3.0469
463.04;	3.0362
463.29;	3.0254
463.53;	3.0144
463.78;	3.0034
464.02;	2.9924
464.26;	2.9812
464.51;	2.9700
464.75;	2.9586
464.99;	2.9472
465.24;	2.9358
465.48;	2.9242
465.73;	2.9126
465.97;	2.9009
466.21;	2.8891
466.46;	2.8773
466.70;	2.8653
466.94;	2.8534
467.19;	2.8413
467.43;	2.8292
467.68;	2.8170
467.92;	2.8048
468.16;	2.7925
468.41;	2.7801
468.65;	2.7677
468.90;	2.7552
469.14;	2.7427
469.38;	2.7301
469.63;	2.7174
469.87;	2.7047
470.11;	2.6920
470.36;	2.6792
470.60;	2.6663
470.85;	2.6534
471.09;	2.6405
471.33;	2.6275
471.58;	2.6145
471.82;	2.6014
472.06;	2.5883
472.31;	2.5751
472.55;	2.5619
472.80;	2.5487
473.04;	2.5354
473.28;	2.5221
473.53;	2.5088
473.77;	2.4954
474.01;	2.4820
474.26;	2.4686
474.50;	2.4551
474.75;	2.4417
474.99;	2.4281
475.23;	2.4146
475.48;	2.4011
475.72;	2.3875
475.97;	2.3739
476.21;	2.3603
476.45;	2.3466
476.70;	2.3330
476.94;	2.3193
477.18;	2.3056
477.43;	2.2919
477.67;	2.2782
477.92;	2.2645
478.16;	2.2507
478.40;	2.2370
478.65;	2.2232
478.89;	2.2095
479.13;	2.1957
479.38;	2.1820
479.62;	2.1682
479.87;	2.1544
480.11;	2.1407
480.35;	2.1269
480.60;	2.1131
480.84;	2.0994
481.08;	2.0856
481.33;	2.0718
481.57;	2.0581
481.82;	2.0443
482.06;	2.0306
482.30;	2.0169
482.55;	2.0032
482.79;	1.9895
483.04;	1.9758
483.28;	1.9621
483.52;	1.9484
483.77;	1.9348
484.01;	1.9212
484.25;	1.9075
484.50;	1.8939
484.74;	1.8804
484.99;	1.8668
485.23;	1.8533
485.47;	1.8398
485.72;	1.8263
485.96;	1.8128
486.20;	1.7994
486.45;	1.7860
486.69;	1.7726
486.94;	1.7592
487.18;	1.7459
487.42;	1.7326
487.67;	1.7193
487.91;	1.7061
488.16;	1.6929
488.40;	1.6797
488.64;	1.6666
488.89;	1.6535
489.13;	1.6404
489.37;	1.6274
489.62;	1.6144
489.86;	1.6014
490.11;	1.5885
490.35;	1.5757
490.59;	1.5628
490.84;	1.5500
491.08;	1.5373
491.32;	1.5246
491.57;	1.5119
491.81;	1.4993
492.06;	1.4867
492.30;	1.4741
492.54;	1.4617
492.79;	1.4492
493.03;	1.4368
493.27;	1.4245
493.52;	1.4122
493.76;	1.3999
494.01;	1.3877
494.25;	1.3756
494.49;	1.3635
494.74;	1.3514
494.98;	1.3394
495.23;	1.3275
495.47;	1.3156
495.71;	1.3037
495.96;	1.2919
496.20;	1.2802
496.44;	1.2685
496.69;	1.2569
496.93;	1.2453
497.18;	1.2338
497.42;	1.2223
497.66;	1.2109
497.91;	1.1996
498.15;	1.1883
498.39;	1.1771
498.64;	1.1659
498.88;	1.1548
499.13;	1.1438
499.37;	1.1328
499.61;	1.1218
499.86;	1.1110
500.10;	1.1001
500.34;	1.0894
500.59;	1.0787
500.83;	1.0681
501.08;	1.0575
501.32;	1.0470
501.56;	1.0365
501.81;	1.0262
502.05;	1.0158
502.30;	1.0056
502.54;	0.9954
502.78;	0.9853
503.03;	0.9752
503.27;	0.9652
503.51;	0.9552
503.76;	0.9454
504.00;	0.9355
504.25;	0.9258
504.49;	0.9161
504.73;	0.9065
504.98;	0.8969
505.22;	0.8874
505.46;	0.8780
505.71;	0.8686
505.95;	0.8593
506.20;	0.8501
506.44;	0.8409
506.68;	0.8318
506.93;	0.8228
507.17;	0.8138
507.42;	0.8049
507.66;	0.7961
507.90;	0.7873
508.15;	0.7786
508.39;	0.7699
508.63;	0.7613
508.88;	0.7528
509.12;	0.7444
509.37;	0.7360
509.61;	0.7276
509.85;	0.7194
510.10;	0.7112
510.34;	0.7031
510.58;	0.6950
510.83;	0.6870
511.07;	0.6791
511.32;	0.6712
511.56;	0.6634
511.80;	0.6556
512.05;	0.6479
512.29;	0.6403
512.53;	0.6328
512.78;	0.6253
513.02;	0.6179
513.27;	0.6105
513.51;	0.6032
513.75;	0.5960
514.00;	0.5888
514.24;	0.5817
514.49;	0.5746
514.73;	0.5677
514.97;	0.5607
515.22;	0.5539
515.46;	0.5471
515.70;	0.5403
515.95;	0.5337
516.19;	0.5270
516.44;	0.5205
516.68;	0.5140
516.92;	0.5076
517.17;	0.5012
517.41;	0.4949
517.65;	0.4886
517.90;	0.4824
518.14;	0.4763
518.39;	0.4702
518.63;	0.4642
518.87;	0.4583
519.12;	0.4524
519.36;	0.4465
519.60;	0.4407
519.85;	0.4350
520.09;	0.4293
520.34;	0.4237
520.58;	0.4182
520.82;	0.4127
521.07;	0.4072
521.31;	0.4019
521.56;	0.3965
521.80;	0.3912
522.04;	0.3860
522.29;	0.3809
522.53;	0.3757
522.77;	0.3707
523.02;	0.3657
523.26;	0.3607
523.51;	0.3558
523.75;	0.3510
523.99;	0.3462
524.24;	0.3414
524.48;	0.3368
524.72;	0.3321
524.97;	0.3275
525.21;	0.3230
525.46;	0.3185
525.70;	0.3141
525.94;	0.3097
526.19;	0.3053
526.43;	0.3011
526.67;	0.2968
526.92;	0.2926
527.16;	0.2885
527.41;	0.2844
527.65;	0.2803
527.89;	0.2763
528.14;	0.2724
528.38;	0.2685
528.63;	0.2646
528.87;	0.2608
529.11;	0.2570
529.36;	0.2533
529.60;	0.2496
529.84;	0.2460
530.09;	0.2424
530.33;	0.2388
530.58;	0.2353
530.82;	0.2318
531.06;	0.2284
531.31;	0.2250
531.55;	0.2217
531.79;	0.2184
532.04;	0.2151
532.28;	0.2119
532.53;	0.2088
532.77;	0.2056
533.01;	0.2025
533.26;	0.1995
533.50;	0.1964
533.75;	0.1935
533.99;	0.1905
534.23;	0.1876
534.48;	0.1848
534.72;	0.1819
534.96;	0.1791
535.21;	0.1764
535.45;	0.1737
535.70;	0.1710
535.94;	0.1683
536.18;	0.1657
536.43;	0.1631
536.67;	0.1606
536.91;	0.1581
537.16;	0.1556
537.40;	0.1532
537.65;	0.1508
537.89;	0.1484
538.13;	0.1460
538.38;	0.1437
538.62;	0.1414
538.86;	0.1392
539.11;	0.1370
539.35;	0.1348
539.60;	0.1326
539.84;	0.1305
540.08;	0.1284
540.33;	0.1263
540.57;	0.1243
540.82;	0.1223
541.06;	0.1203
541.30;	0.1184
541.55;	0.1164
541.79;	0.1145
542.03;	0.1127
542.28;	0.1108
542.52;	0.1090
542.77;	0.1072
543.01;	0.1055
543.25;	0.1037
543.50;	0.1020
543.74;	0.1003
543.98;	0.0987
544.23;	0.0971
544.47;	0.0954
544.72;	0.0939
544.96;	0.0923
545.20;	0.0908
545.45;	0.0892
545.69;	0.0877
545.93;	0.0863
546.18;	0.0848
546.42;	0.0834
546.67;	0.0820
546.91;	0.0806
547.15;	0.0793
547.40;	0.0779
547.64;	0.0766
547.89;	0.0753
548.13;	0.0740
548.37;	0.0728
548.62;	0.0715
548.86;	0.0703
549.10;	0.0691
549.35;	0.0680
549.59;	0.0668
549.84;	0.0657
550.08;	0.0645
550.32;	0.0634
550.57;	0.0623
550.81;	0.0613
551.05;	0.0602
551.30;	0.0592
551.54;	0.0582
551.79;	0.0572
552.03;	0.0562
552.27;	0.0552
552.52;	0.0543
552.76;	0.0533
553.00;	0.0524
553.25;	0.0515
553.49;	0.0506
553.74;	0.0498
553.98;	0.0489
554.22;	0.0480
554.47;	0.0472
554.71;	0.0464
554.96;	0.0456
555.20;	0.0448
555.44;	0.0440
555.69;	0.0433
555.93;	0.0425
556.17;	0.0418
556.42;	0.0411
556.66;	0.0404
556.91;	0.0397
557.15;	0.0390
557.39;	0.0383
557.64;	0.0377
557.88;	0.0370
558.12;	0.0364
558.37;	0.0358
558.61;	0.0351
558.86;	0.0345
559.10;	0.0340
559.34;	0.0334
559.59;	0.0328
559.83;	0.0322
560.08;	0.0317
560.32;	0.0312
560.56;	0.0306
560.81;	0.0301
561.05;	0.0296
561.29;	0.0291
561.54;	0.0286
561.78;	0.0281
562.03;	0.0277
562.27;	0.0272
562.51;	0.0268
562.76;	0.0263
563.00;	0.0259
563.24;	0.0255
563.49;	0.0250
563.73;	0.0246
563.98;	0.0242
564.22;	0.0238
564.46;	0.0234
564.71;	0.0231
564.95;	0.0227
565.19;	0.0223
565.44;	0.0220
565.68;	0.0216
565.93;	0.0213
566.17;	0.0209
566.41;	0.0206
566.66;	0.0203
566.90;	0.0200
567.15;	0.0197
567.39;	0.0194
567.63;	0.0191
567.88;	0.0188
568.12;	0.0185
568.36;	0.0182
568.61;	0.0180
568.85;	0.0177
569.10;	0.0174
569.34;	0.0172
569.58;	0.0169
569.83;	0.0167
570.07;	0.0164
570.31;	0.0162
570.56;	0.0160
570.80;	0.0158
571.05;	0.0155
571.29;	0.0153
571.53;	0.0151
571.78;	0.0149
572.02;	0.0147
572.26;	0.0145
572.51;	0.0143
572.75;	0.0142
573.00;	0.0140
573.24;	0.0138
573.48;	0.0136
573.73;	0.0135
573.97;	0.0133
574.22;	0.0131
574.46;	0.0130
574.70;	0.0128
574.95;	0.0127
575.19;	0.0125
575.43;	0.0124
575.68;	0.0123
575.92;	0.0121
576.17;	0.0120
576.41;	0.0119
576.65;	0.0117
576.90;	0.0116
577.14;	0.0115
577.38;	0.0114
577.63;	0.0113
577.87;	0.0112
578.12;	0.0111
578.36;	0.0110
578.60;	0.0109
578.85;	0.0108
579.09;	0.0107
579.33;	0.0106
579.58;	0.0105
579.82;	0.0104
580.07;	0.0103
580.31;	0.0102
580.55;	0.0102
580.80;	0.0101
581.04;	0.0100
581.29;	0.0099
581.53;	0.0099
581.77;	0.0098
582.02;	0.0097
582.26;	0.0097
582.50;	0.0096
582.75;	0.0096
582.99;	0.0095
583.24;	0.0095
583.48;	0.0094
583.72;	0.0094
583.97;	0.0093
584.21;	0.0093
584.45;	0.0092
584.70;	0.0092
584.94;	0.0091
585.19;	0.0091
585.43;	0.0091
585.67;	0.0090
585.92;	0.0090
586.16;	0.0089
586.41;	0.0089
586.65;	0.0089
586.89;	0.0089
587.14;	0.0088
587.38;	0.0088
587.62;	0.0088
587.87;	0.0088
588.11;	0.0087
588.36;	0.0087
588.60;	0.0087
588.84;	0.0087
589.09;	0.0087
589.33;	0.0086
589.57;	0.0086
589.82;	0.0086
590.06;	0.0086
590.31;	0.0086
590.55;	0.0086
590.79;	0.0086
591.04;	0.0086
591.28;	0.0086
591.52;	0.0086
591.77;	0.0086
592.01;	0.0086
592.26;	0.0086
592.50;	0.0086
592.74;	0.0086
592.99;	0.0086
593.23;	0.0086
593.48;	0.0086
593.72;	0.0086
593.96;	0.0086
594.21;	0.0086
594.45;	0.0086
594.69;	0.0086
594.94;	0.0086
595.18;	0.0086
595.43;	0.0086
595.67;	0.0086
595.91;	0.0086
596.16;	0.0086
596.40;	0.0086
596.64;	0.0087
596.89;	0.0087
597.13;	0.0087
597.38;	0.0087
597.62;	0.0087
597.86;	0.0087
598.11;	0.0087
598.35;	0.0088
598.59;	0.0088
598.84;	0.0088
599.08;	0.0088
599.33;	0.0088
599.57;	0.0088
599.81;	0.0089
600.06;	0.0089
600.30;	0.0089
600.55;	0.0089
600.79;	0.0089
601.03;	0.0090
601.28;	0.0090
601.52;	0.0090
601.76;	0.0090
602.01;	0.0091
602.25;	0.0091
602.50;	0.0091
602.74;	0.0091
602.98;	0.0092
603.23;	0.0092
603.47;	0.0092
603.71;	0.0092
603.96;	0.0093
604.20;	0.0093
604.45;	0.0093
604.69;	0.0093
604.93;	0.0094
605.18;	0.0094
605.42;	0.0094
605.67;	0.0094
605.91;	0.0095
606.15;	0.0095
606.40;	0.0095
606.64;	0.0096
606.88;	0.0096
607.13;	0.0096
607.37;	0.0096
607.62;	0.0097
607.86;	0.0097
608.10;	0.0097
608.35;	0.0098
608.59;	0.0098
608.83;	0.0098
609.08;	0.0099
609.32;	0.0099
609.57;	0.0099
609.81;	0.0100
610.05;	0.0100
610.30;	0.0100
610.54;	0.0101
610.78;	0.0101
611.03;	0.0101
611.27;	0.0101
611.52;	0.0102
611.76;	0.0102
612.00;	0.0102
612.25;	0.0103
612.49;	0.0103
612.74;	0.0103
612.98;	0.0104
613.22;	0.0104
613.47;	0.0104
613.71;	0.0105
613.95;	0.0105
614.20;	0.0106
614.44;	0.0106
614.69;	0.0106
614.93;	0.0107
615.17;	0.0107
615.42;	0.0107
615.66;	0.0108
615.90;	0.0108
616.15;	0.0108
616.39;	0.0109
616.64;	0.0109
616.88;	0.0109
617.12;	0.0110
617.37;	0.0110
617.61;	0.0110
617.85;	0.0111
618.10;	0.0111
618.34;	0.0111
618.59;	0.0112
618.83;	0.0112
619.07;	0.0113
619.32;	0.0113
619.56;	0.0113
619.81;	0.0114
620.05;	0.0114
620.29;	0.0114
620.54;	0.0115
620.78;	0.0115
621.02;	0.0115
621.27;	0.0116
621.51;	0.0116
621.76;	0.0116
622.00;	0.0117
622.24;	0.0117
622.49;	0.0118
622.73;	0.0118
622.97;	0.0118
623.22;	0.0119
623.46;	0.0119
623.71;	0.0119
623.95;	0.0120
624.19;	0.0120
624.44;	0.0120
624.68;	0.0121
624.92;	0.0121
625.17;	0.0121
625.41;	0.0122
625.66;	0.0122
625.90;	0.0123
626.14;	0.0123
626.39;	0.0123
626.63;	0.0124
626.88;	0.0124
627.12;	0.0124
627.36;	0.0125
627.61;	0.0125
627.85;	0.0125
628.09;	0.0126
628.34;	0.0126
628.58;	0.0126
628.83;	0.0127
629.07;	0.0127
629.31;	0.0127
629.56;	0.0128
629.80;	0.0128
630.04;	0.0129
630.29;	0.0129
630.53;	0.0129
630.78;	0.0130
631.02;	0.0130
631.26;	0.0130
631.51;	0.0131
631.75;	0.0131
632.00;	0.0131
632.24;	0.0132
632.48;	0.0132
632.73;	0.0132
632.97;	0.0133
633.21;	0.0133
633.46;	0.0133
633.70;	0.0134
633.95;	0.0134
634.19;	0.0134
634.43;	0.0135
634.68;	0.0135
634.92;	0.0135
635.16;	0.0136
635.41;	0.0136
635.65;	0.0136
635.90;	0.0137
636.14;	0.0137
636.38;	0.0137
636.63;	0.0138
636.87;	0.0138
637.11;	0.0138
637.36;	0.0139
637.60;	0.0139
637.85;	0.0139
638.09;	0.0140
638.33;	0.0140
638.58;	0.0140
638.82;	0.0141
639.07;	0.0141
639.31;	0.0141
639.55;	0.0142
639.80;	0.0142
640.04;	0.0142
640.28;	0.0143
640.53;	0.0143
640.77;	0.0143
641.02;	0.0144
641.26;	0.0144
641.50;	0.0144
641.75;	0.0144
641.99;	0.0145
642.23;	0.0145
642.48;	0.0145
642.72;	0.0146
642.97;	0.0146
643.21;	0.0146
643.45;	0.0147
643.70;	0.0147
643.94;	0.0147
644.18;	0.0147
644.43;	0.0148
644.67;	0.0148
644.92;	0.0148
645.16;	0.0149
645.40;	0.0149
645.65;	0.0149
645.89;	0.0149
646.14;	0.0150
646.38;	0.0150
646.62;	0.0150
646.87;	0.0151
647.11;	0.0151
647.35;	0.0151
647.60;	0.0151
647.84;	0.0152
648.09;	0.0152
648.33;	0.0152
648.57;	0.0152
648.82;	0.0153
649.06;	0.0153
649.30;	0.0153
649.55;	0.0154
649.79;	0.0154
650.04;	0.0154
650.28;	0.0154
650.52;	0.0155
650.77;	0.0155
651.01;	0.0155
651.25;	0.0155
651.50;	0.0156
651.74;	0.0156
651.99;	0.0156
652.23;	0.0156
652.47;	0.0157
652.72;	0.0157
652.96;	0.0157
653.21;	0.0157
653.45;	0.0158
653.69;	0.0158
653.94;	0.0158
654.18;	0.0158
654.42;	0.0158
654.67;	0.0159
654.91;	0.0159
655.16;	0.0159
655.40;	0.0159
655.64;	0.0160
655.89;	0.0160
656.13;	0.0160
656.37;	0.0160
656.62;	0.0160
656.86;	0.0161
657.11;	0.0161
657.35;	0.0161
657.59;	0.0161
657.84;	0.0161
658.08;	0.0162
658.33;	0.0162
658.57;	0.0162
658.81;	0.0162
659.06;	0.0162
659.30;	0.0163
659.54;	0.0163
659.79;	0.0163
660.03;	0.0163
660.28;	0.0163
660.52;	0.0164
660.76;	0.0164
661.01;	0.0164
661.25;	0.0164
661.49;	0.0164
661.74;	0.0164
661.98;	0.0165
662.23;	0.0165
662.47;	0.0165
662.71;	0.0165
662.96;	0.0165
663.20;	0.0165
663.44;	0.0166
663.69;	0.0166
663.93;	0.0166
664.18;	0.0166
664.42;	0.0166
664.66;	0.0166
664.91;	0.0167
665.15;	0.0167
665.40;	0.0167
665.64;	0.0167
665.88;	0.0167
666.13;	0.0167
666.37;	0.0167
666.61;	0.0168
666.86;	0.0168
667.10;	0.0168
667.35;	0.0168
667.59;	0.0168
667.83;	0.0168
668.08;	0.0168
668.32;	0.0168
668.56;	0.0169
668.81;	0.0169
669.05;	0.0169
669.30;	0.0169
669.54;	0.0169
669.78;	0.0169
670.03;	0.0169
670.27;	0.0169
670.51;	0.0169
670.76;	0.0169
671.00;	0.0170
671.25;	0.0170
671.49;	0.0170
671.73;	0.0170
671.98;	0.0170
672.22;	0.0170
672.47;	0.0170
672.71;	0.0170
672.95;	0.0170
673.20;	0.0170
673.44;	0.0170
673.68;	0.0170
673.93;	0.0170
674.17;	0.0171
674.42;	0.0171
674.66;	0.0171
674.90;	0.0171
675.15;	0.0171
675.39;	0.0171
675.63;	0.0171
675.88;	0.0171
676.12;	0.0171
676.37;	0.0171
676.61;	0.0171
676.85;	0.0171
677.10;	0.0171
677.34;	0.0171
677.58;	0.0171
677.83;	0.0171
678.07;	0.0171
678.32;	0.0171
678.56;	0.0171
678.80;	0.0171
679.05;	0.0171
679.29;	0.0171
679.54;	0.0171
679.78;	0.0171
680.02;	0.0171
680.27;	0.0171
680.51;	0.0171
680.75;	0.0171
681.00;	0.0171
681.24;	0.0171
681.49;	0.0171
681.73;	0.0171
681.97;	0.0171
682.22;	0.0171
682.46;	0.0171
682.70;	0.0171
682.95;	0.0171
683.19;	0.0171
683.44;	0.0171
683.68;	0.0171
683.92;	0.0171
684.17;	0.0171
684.41;	0.0171
684.66;	0.0171
684.90;	0.0171
685.14;	0.0171
685.39;	0.0171
685.63;	0.0171
685.87;	0.0171
686.12;	0.0171
686.36;	0.0171
686.61;	0.0171
686.85;	0.0171
687.09;	0.0171
687.34;	0.0171
687.58;	0.0171
687.82;	0.0171
688.07;	0.0170
688.31;	0.0170
688.56;	0.0170
688.80;	0.0170
689.04;	0.0170
689.29;	0.0170
689.53;	0.0170
689.77;	0.0170
690.02;	0.0170
690.26;	0.0170
690.51;	0.0170
690.75;	0.0170
690.99;	0.0170
691.24;	0.0169
691.48;	0.0169
691.73;	0.0169
691.97;	0.0169
692.21;	0.0169
692.46;	0.0169
692.70;	0.0169
692.94;	0.0169
693.19;	0.0169
693.43;	0.0169
693.68;	0.0168
693.92;	0.0168
694.16;	0.0168
694.41;	0.0168
694.65;	0.0168
694.89;	0.0168
695.14;	0.0168
695.38;	0.0168
695.63;	0.0167
695.87;	0.0167
696.11;	0.0167
696.36;	0.0167
696.60;	0.0167
696.84;	0.0167
697.09;	0.0167
697.33;	0.0166
697.58;	0.0166
697.82;	0.0166
698.06;	0.0166
698.31;	0.0166
698.55;	0.0166
698.80;	0.0165
699.04;	0.0165
699.28;	0.0165
699.53;	0.0165
699.77;	0.0165
700.01;	0.0165
700.26;	0.0164
700.50;	0.0164
700.75;	0.0164
700.99;	0.0164
701.23;	0.0164
701.48;	0.0164
701.72;	0.0163
701.96;	0.0163
702.21;	0.0163
702.45;	0.0163
702.70;	0.0163
702.94;	0.0162
703.18;	0.0162
703.43;	0.0162
703.67;	0.0162
703.92;	0.0162
704.16;	0.0161
704.40;	0.0161
704.65;	0.0161
704.89;	0.0161
705.13;	0.0161
705.38;	0.0160
705.62;	0.0160
705.87;	0.0160
706.11;	0.0160
706.35;	0.0160
706.60;	0.0159
706.84;	0.0159
707.08;	0.0159
707.33;	0.0159
707.57;	0.0158
707.82;	0.0158
708.06;	0.0158
708.30;	0.0158
708.55;	0.0158
708.79;	0.0157
709.03;	0.0157
709.28;	0.0157
709.52;	0.0157
709.77;	0.0156
710.01;	0.0156
710.25;	0.0156
710.50;	0.0156
710.74;	0.0155
710.99;	0.0155
711.23;	0.0155
711.47;	0.0155
711.72;	0.0154
711.96;	0.0154
712.20;	0.0154
712.45;	0.0154
712.69;	0.0153
712.94;	0.0153
713.18;	0.0153
713.42;	0.0152
713.67;	0.0152
713.91;	0.0152
714.15;	0.0152
714.40;	0.0151
714.64;	0.0151
714.89;	0.0151
715.13;	0.0151
715.37;	0.0150
715.62;	0.0150
715.86;	0.0150
716.10;	0.0149
716.35;	0.0149
716.59;	0.0149
716.84;	0.0149
717.08;	0.0148
717.32;	0.0148
717.57;	0.0148
717.81;	0.0147
718.06;	0.0147
718.30;	0.0147
718.54;	0.0147
718.79;	0.0146
719.03;	0.0146
719.27;	0.0146
719.52;	0.0145
719.76;	0.0145
720.01;	0.0145
720.25;	0.0144
720.49;	0.0144
720.74;	0.0144
720.98;	0.0143
721.22;	0.0143
721.47;	0.0143
721.71;	0.0143
721.96;	0.0142
722.20;	0.0142
722.44;	0.0142
722.69;	0.0141
722.93;	0.0141
723.17;	0.0141
723.42;	0.0140
723.66;	0.0140
723.91;	0.0140
724.15;	0.0139
724.39;	0.0139
724.64;	0.0139
724.88;	0.0138
725.13;	0.0138
725.37;	0.0138
725.61;	0.0137
725.86;	0.0137
726.10;	0.0137
726.34;	0.0136
726.59;	0.0136
726.83;	0.0136
727.08;	0.0135
727.32;	0.0135
727.56;	0.0135
727.81;	0.0134
728.05;	0.0134
728.29;	0.0134
728.54;	0.0133
728.78;	0.0133
729.03;	0.0133
729.27;	0.0132
729.51;	0.0132
729.76;	0.0132
730.00;	0.0131
730.25;	0.0131
730.49;	0.0131
730.73;	0.0130
730.98;	0.0130
731.22;	0.0129
731.46;	0.0129
731.71;	0.0129
731.95;	0.0128
732.20;	0.0128
732.44;	0.0128
732.68;	0.0127
732.93;	0.0127
733.17;	0.0127
733.41;	0.0126
733.66;	0.0126
733.90;	0.0126
734.15;	0.0125
734.39;	0.0125
734.63;	0.0124
734.88;	0.0124
735.12;	0.0124
735.36;	0.0123
735.61;	0.0123
735.85;	0.0123
736.10;	0.0122
736.34;	0.0122
736.58;	0.0122
736.83;	0.0121
737.07;	0.0121
737.32;	0.0120
737.56;	0.0120
737.80;	0.0120
738.05;	0.0119
738.29;	0.0119
738.53;	0.0119
738.78;	0.0118
739.02;	0.0118
739.27;	0.0117
739.51;	0.0117
739.75;	0.0117
740.00;	0.0116
740.24;	0.0116
740.48;	0.0116
740.73;	0.0115
740.97;	0.0115
741.22;	0.0114
741.46;	0.0114
741.70;	0.0114
741.95;	0.0113
742.19;	0.0113
742.43;	0.0113
742.68;	0.0112
742.92;	0.0112
743.17;	0.0111
743.41;	0.0111
743.65;	0.0111
743.90;	0.0110
744.14;	0.0110
744.39;	0.0110
744.63;	0.0109
744.87;	0.0109
745.12;	0.0108
745.36;	0.0108
745.60;	0.0108
745.85;	0.0107
746.09;	0.0107
746.34;	0.0107
746.58;	0.0106
746.82;	0.0106
747.07;	0.0105
747.31;	0.0105
747.55;	0.0105
747.80;	0.0104
748.04;	0.0104
748.29;	0.0104
748.53;	0.0103
748.77;	0.0103
749.02;	0.0102
749.26;	0.0102
749.50;	0.0102
749.75;	0.0101
749.99;	0.0101
750.24;	0.0101
750.48;	0.0100
750.72;	0.0100
750.97;	0.0099
751.21;	0.0099
751.46;	0.0099
751.70;	0.0098
751.94;	0.0098
752.19;	0.0097
752.43;	0.0097
752.67;	0.0097
752.92;	0.0096
753.16;	0.0096
753.41;	0.0096
753.65;	0.0095
753.89;	0.0095
754.14;	0.0094
754.38;	0.0094
754.62;	0.0094
754.87;	0.0093
755.11;	0.0093
755.36;	0.0093
755.60;	0.0092
755.84;	0.0092
756.09;	0.0091
756.33;	0.0091
756.58;	0.0091
756.82;	0.0090
757.06;	0.0090
757.31;	0.0090
757.55;	0.0089
757.79;	0.0089
758.04;	0.0089
758.28;	0.0088
758.53;	0.0088
758.77;	0.0087
759.01;	0.0087
759.26;	0.0087
759.50;	0.0086
759.74;	0.0086
759.99;	0.0086
760.23;	0.0085
760.48;	0.0085
760.72;	0.0084
760.96;	0.0084
761.21;	0.0084
761.45;	0.0083
761.69;	0.0083
761.94;	0.0083
762.18;	0.0082
762.43;	0.0082
762.67;	0.0082
762.91;	0.0081
763.16;	0.0081
763.40;	0.0080
763.65;	0.0080
763.89;	0.0080
764.13;	0.0079
764.38;	0.0079
764.62;	0.0079
764.86;	0.0078
765.11;	0.0078
765.35;	0.0078
765.60;	0.0077
765.84;	0.0077
766.08;	0.0077
766.33;	0.0076
766.57;	0.0076
766.81;	0.0075
767.06;	0.0075
767.30;	0.0075
767.55;	0.0074
767.79;	0.0074
768.03;	0.0074
768.28;	0.0073
768.52;	0.0073
768.76;	0.0073
769.01;	0.0072
769.25;	0.0072
769.50;	0.0072
769.74;	0.0071
769.98;	0.0071
770.23;	0.0071
770.47;	0.0070
770.72;	0.0070
770.96;	0.0070
771.20;	0.0069
771.45;	0.0069
771.69;	0.0069
771.93;	0.0068
772.18;	0.0068
772.42;	0.0068
772.67;	0.0067
772.91;	0.0067
773.15;	0.0067
773.40;	0.0066
773.64;	0.0066
773.88;	0.0066
774.13;	0.0065
774.37;	0.0065
774.62;	0.0065
774.86;	0.0064
775.10;	0.0064
775.35;	0.0064
775.59;	0.0063
775.83;	0.0063
776.08;	0.0063
776.32;	0.0062
776.57;	0.0062
776.81;	0.0062
777.05;	0.0061
777.30;	0.0061
777.54;	0.0061
777.79;	0.0060
778.03;	0.0060
778.27;	0.0060
778.52;	0.0059
778.76;	0.0059
779.00;	0.0059
779.25;	0.0059
779.49;	0.0058
779.74;	0.0058
779.98;	0.0058
780.22;	0.0057
780.47;	0.0057
780.71;	0.0057
780.95;	0.0056
781.20;	0.0056
781.44;	0.0056
781.69;	0.0055
781.93;	0.0055
782.17;	0.0055
782.42;	0.0055
782.66;	0.0054
782.91;	0.0054
783.15;	0.0054
783.39;	0.0053
783.64;	0.0053
783.88;	0.0053
784.12;	0.0052
784.37;	0.0052
784.61;	0.0052
784.86;	0.0052
785.10;	0.0051
785.34;	0.0051
785.59;	0.0051
785.83;	0.0050
786.07;	0.0050
786.32;	0.0050
786.56;	0.0050
786.81;	0.0049
787.05;	0.0049
787.29;	0.0049
787.54;	0.0048
787.78;	0.0048
788.02;	0.0048
788.27;	0.0048
788.51;	0.0047
788.76;	0.0047
789.00;	0.0047
