wavelength, nm;	absorption
391.00;	1.4334
391.25;	1.4462
391.51;	1.4590
391.76;	1.4720
392.01;	1.4849
392.26;	1.4979
392.52;	1.5110
392.77;	1.5241
393.02;	1.5373
393.27;	1.5505
393.53;	1.5637
393.78;	1.5770
394.03;	1.5903
394.29;	1.6037
394.54;	1.6171
394.79;	1.6306
395.04;	1.6440
395.30;	1.6576
395.55;	1.6711
395.80;	1.6847
396.05;	1.6984
396.31;	1.7121
396.56;	1.7258
396.81;	1.7395
397.07;	1.7533
397.32;	1.7671
397.57;	1.7809
397.82;	1.7948
398.08;	1.8087
398.33;	1.8226
398.58;	1.8365
398.83;	1.8505
399.09;	1.8645
399.34;	1.8785
399.59;	1.8925
399.84;	1.9066
400.10;	1.9207
400.35;	1.9348
400.60;	1.9489
400.86;	1.9630
401.11;	1.9771
401.36;	1.9913
401.61;	2.0055
401.87;	2.0196
402.12;	2.0338
402.37;	2.0480
402.62;	2.0622
402.88;	2.0765
403.13;	2.0907
403.38;	2.1049
403.64;	2.1191
403.89;	2.1334
404.14;	2.1476
404.39;	2.1618
404.65;	2.1760
404.90;	2.1903
405.15;	2.2045
405.40;	2.2187
405.66;	2.2329
405.91;	2.2471
406.16;	2.2613
406.42;	2.2755
406.67;	2.2896
406.92;	2.3038
407.17;	2.3179
407.43;	2.3320
407.68;	2.3461
407.93;	2.3602
408.18;	2.3743
408.44;	2.3883
408.69;	2.4023
408.94;	2.4163
409.20;	2.4303
409.45;	2.4442
409.70;	2.4581
409.95;	2.4720
410.21;	2.4859
410.46;	2.4997
410.71;	2.5135
410.96;	2.5272
411.22;	2.5409
411.47;	2.5546
411.72;	2.5682
411.97;	2.5818
412.23;	2.5953
412.48;	2.6088
412.73;	2.6223
412.99;	2.6357
413.24;	2.6491
413.49;	2.6624
413.74;	2.6756
414.00;	2.6888
414.25;	2.7020
414.50;	2.7151
414.75;	2.7281
415.01;	2.7411
415.26;	2.7540
415.51;	2.7669
415.77;	2.7797
416.02;	2.7924
416.27;	2.8051
416.52;	2.8177
416.78;	2.8302
417.03;	2.8426
417.28;	2.8550
417.53;	2.8673
417.79;	2.8796
418.04;	2.8917
418.29;	2.9038
418.55;	2.9158
418.80;	2.9278
419.05;	2.9396
419.30;	2.9514
419.56;	2.9631
419.81;	2.9747
420.06;	2.9862
420.31;	2.9976
420.57;	3.0089
420.82;	3.0202
421.07;	3.0313
421.33;	3.0424
421.58;	3.0533
421.83;	3.0642
422.08;	3.0750
422.34;	3.0856
422.59;	3.0962
422.84;	3.1067
423.09;	3.1170
423.35;	3.1273
423.60;	3.1374
423.85;	3.1475
424.10;	3.1574
424.36;	3.1673
424.61;	3.1770
424.86;	3.1866
425.12;	3.1961
425.37;	3.2055
425.62;	3.2148
425.87;	3.2239
426.13;	3.2330
426.38;	3.2419
426.63;	3.2507
426.88;	3.2594
427.14;	3.2679
427.39;	3.2764
427.64;	3.2847
427.90;	3.2929
428.15;	3.3009
428.40;	3.3089
428.65;	3.3167
428.91;	3.3244
429.16;	3.3319
429.41;	3.3394
429.66;	3.3466
429.92;	3.3538
430.17;	3.3608
430.42;	3.3677
430.68;	3.3745
430.93;	3.3811
431.18;	3.3876
431.43;	3.3939
431.69;	3.4001
431.94;	3.4062
432.19;	3.4121
432.44;	3.4179
432.70;	3.4236
432.95;	3.4291
433.20;	3.4344
433.46;	3.4396
433.71;	3.4447
433.96;	3.4496
434.21;	3.4544
434.47;	3.4590
434.72;	3.4635
434.97;	3.4679
435.22;	3.4721
435.48;	3.4761
435.73;	3.4800
435.98;	3.4837
436.24;	3.4873
436.49;	3.4908
436.74;	3.4941
436.99;	3.4972
437.25;	3.5002
437.50;	3.5030
437.75;	3.5057
438.00;	3.5083
438.26;	3.5106
438.51;	3.5129
438.76;	3.5149
439.01;	3.5168
439.27;	3.5186
439.52;	3.5202
439.77;	3.5217
440.03;	3.5230
440.28;	3.5241
440.53;	3.5251
440.78;	3.5259
441.04;	3.5266
441.29;	3.5271
441.54;	3.5275
441.79;	3.5277
442.05;	3.5277
442.30;	3.5276
442.55;	3.5273
442.81;	3.5269
443.06;	3.5264
443.31;	3.5256
443.56;	3.5247
443.82;	3.5237
444.07;	3.5225
444.32;	3.5211
444.57;	3.5196
444.83;	3.5180
445.08;	3.5162
445.33;	3.5142
445.59;	3.5121
445.84;	3.5098
446.09;	3.5073
446.34;	3.5048
446.60;	3.5020
446.85;	3.4991
447.10;	3.4961
447.35;	3.4929
447.61;	3.4895
447.86;	3.4860
448.11;	3.4824
448.37;	3.4786
448.62;	3.4746
448.87;	3.4705
449.12;	3.4663
449.38;	3.4619
449.63;	3.4574
449.88;	3.4527
450.13;	3.4478
450.39;	3.4429
450.64;	3.4377
450.89;	3.4325
451.14;	3.4271
451.40;	3.4215
451.65;	3.4158
451.90;	3.4100
452.16;	3.4040
452.41;	3.3979
452.66;	3.3916
452.91;	3.3852
453.17;	3.3787
453.42;	3.3720
453.67;	3.3652
453.92;	3.3583
454.18;	3.3512
454.43;	3.3440
454.68;	3.3366
454.94;	3.3292
455.19;	3.3216
455.44;	3.3138
455.69;	3.3060
455.95;	3.2980
456.20;	3.2899
456.45;	3.2817
456.70;	3.2733
456.96;	3.2648
457.21;	3.2562
457.46;	3.2475
457.72;	3.2386
457.97;	3.2297
458.22;	3.2206
458.47;	3.2114
458.73;	3.2021
458.98;	3.1926
459.23;	3.1831
459.48;	3.1734
459.74;	3.1637
459.99;	3.1538
460.24;	3.1438
460.50;	3.1337
460.75;	3.1235
461.00;	3.1132
461.25;	3.1028
461.51;	3.0923
461.76;	3.0817
462.01;	3.0710
462.26;	3.0602
462.52;	3.0493
462.77;	3.0383
463.02;	3.0272
463.27;	3.0161
463.53;	3.0048
463.78;	2.9934
464.03;	2.9820
464.29;	2.9704
464.54;	2.9588
464.79;	2.9471
465.04;	2.9353
465.30;	2.9234
465.55;	2.9115
465.80;	2.8994
466.05;	2.8873
466.31;	2.8751
466.56;	2.8629
466.81;	2.8505
467.07;	2.8381
467.32;	2.8256
467.57;	2.8131
467.82;	2.8005
468.08;	2.7878
468.33;	2.7750
468.58;	2.7622
468.83;	2.7493
469.09;	2.7364
469.34;	2.7234
469.59;	2.7103
469.85;	2.6972
470.10;	2.6841
470.35;	2.6708
470.60;	2.6576
470.86;	2.6442
471.11;	2.6309
471.36;	2.6174
471.61;	2.6040
471.87;	2.5904
472.12;	2.5769
472.37;	2.5633
472.63;	2.5496
472.88;	2.5360
473.13;	2.5222
473.38;	2.5085
473.64;	2.4947
473.89;	2.4809
474.14;	2.4670
474.39;	2.4531
474.65;	2.4392
474.90;	2.4253
475.15;	2.4113
475.41;	2.3973
475.66;	2.3833
475.91;	2.3692
476.16;	2.3552
476.42;	2.3411
476.67;	2.3270
476.92;	2.3128
477.17;	2.2987
477.43;	2.2845
477.68;	2.2704
477.93;	2.2562
478.18;	2.2420
478.44;	2.2278
478.69;	2.2136
478.94;	2.1994
479.20;	2.1852
479.45;	2.1710
479.70;	2.1567
479.95;	2.1425
480.21;	2.1283
480.46;	2.1141
480.71;	2.0998
480.96;	2.0856
481.22;	2.0714
481.47;	2.0572
481.72;	2.0430
481.98;	2.0288
482.23;	2.0146
482.48;	2.0004
482.73;	1.9863
482.99;	1.9721
483.24;	1.9580
483.49;	1.9439
483.74;	1.9298
484.00;	1.9157
484.25;	1.9016
484.50;	1.8876
484.76;	1.8736
485.01;	1.8596
485.26;	1.8456
485.51;	1.8316
485.77;	1.8177
486.02;	1.8038
486.27;	1.7899
486.52;	1.7761
486.78;	1.7623
487.03;	1.7485
487.28;	1.7347
487.54;	1.7210
487.79;	1.7073
488.04;	1.6936
488.29;	1.6800
488.55;	1.6664
488.80;	1.6529
489.05;	1.6394
489.30;	1.6259
489.56;	1.6125
489.81;	1.5991
490.06;	1.5857
490.31;	1.5724
490.57;	1.5592
490.82;	1.5459
491.07;	1.5328
491.33;	1.5196
491.58;	1.5065
491.83;	1.4935
492.08;	1.4805
492.34;	1.4676
492.59;	1.4547
492.84;	1.4418
493.09;	1.4290
493.35;	1.4163
493.60;	1.4036
493.85;	1.3910
494.11;	1.3784
494.36;	1.3658
494.61;	1.3534
494.86;	1.3409
495.12;	1.3286
495.37;	1.3163
495.62;	1.3040
495.87;	1.2918
496.13;	1.2797
496.38;	1.2676
496.63;	1.2556
496.89;	1.2436
497.14;	1.2317
497.39;	1.2198
497.64;	1.2081
497.90;	1.1963
498.15;	1.1847
498.40;	1.1731
498.65;	1.1615
498.91;	1.1501
499.16;	1.1387
499.41;	1.1273
499.67;	1.1160
499.92;	1.1048
500.17;	1.0937
500.42;	1.0826
500.68;	1.0715
500.93;	1.0606
501.18;	1.0497
501.43;	1.0389
501.69;	1.0281
501.94;	1.0174
502.19;	1.0068
502.44;	0.9962
502.70;	0.9857
502.95;	0.9753
503.20;	0.9650
503.46;	0.9547
503.71;	0.9445
503.96;	0.9343
504.21;	0.9242
504.47;	0.9142
504.72;	0.9043
504.97;	0.8944
505.22;	0.8846
505.48;	0.8749
505.73;	0.8652
505.98;	0.8556
506.24;	0.8461
506.49;	0.8366
506.74;	0.8272
506.99;	0.8179
507.25;	0.8086
507.50;	0.7995
507.75;	0.7903
508.00;	0.7813
508.26;	0.7723
508.51;	0.7634
508.76;	0.7546
509.02;	0.7458
509.27;	0.7371
509.52;	0.7285
509.77;	0.7200
510.03;	0.7115
510.28;	0.7031
510.53;	0.6947
510.78;	0.6864
511.04;	0.6782
511.29;	0.6701
511.54;	0.6620
511.80;	0.6540
512.05;	0.6461
512.30;	0.6382
512.55;	0.6304
512.81;	0.6227
513.06;	0.6150
513.31;	0.6074
513.56;	0.5999
513.82;	0.5925
514.07;	0.5851
514.32;	0.5777
514.58;	0.5705
514.83;	0.5633
515.08;	0.5562
515.33;	0.5491
515.59;	0.5421
515.84;	0.5352
516.09;	0.5284
516.34;	0.5216
516.60;	0.5148
516.85;	0.5082
517.10;	0.5016
517.35;	0.4950
517.61;	0.4886
517.86;	0.4822
518.11;	0.4758
518.37;	0.4695
518.62;	0.4633
518.87;	0.4572
519.12;	0.4511
519.38;	0.4451
519.63;	0.4391
519.88;	0.4332
520.13;	0.4273
520.39;	0.4216
520.64;	0.4158
520.89;	0.4102
521.15;	0.4046
521.40;	0.3990
521.65;	0.3935
521.90;	0.3881
522.16;	0.3828
522.41;	0.3774
522.66;	0.3722
522.91;	0.3670
523.17;	0.3619
523.42;	0.3568
523.67;	0.3518
523.93;	0.3468
524.18;	0.3419
524.43;	0.3370
524.68;	0.3322
524.94;	0.3275
525.19;	0.3228
525.44;	0.3182
525.69;	0.3136
525.95;	0.3091
526.20;	0.3046
526.45;	0.3002
526.71;	0.2958
526.96;	0.2915
527.21;	0.2872
527.46;	0.2830
527.72;	0.2788
527.97;	0.2747
528.22;	0.2706
528.47;	0.2666
528.73;	0.2627
528.98;	0.2587
529.23;	0.2549
529.48;	0.2510
529.74;	0.2473
529.99;	0.2435
530.24;	0.2399
530.50;	0.2362
530.75;	0.2326
531.00;	0.2291
531.25;	0.2256
531.51;	0.2221
531.76;	0.2187
532.01;	0.2154
532.26;	0.2120
532.52;	0.2088
532.77;	0.2055
533.02;	0.2023
533.28;	0.1992
533.53;	0.1961
533.78;	0.1930
534.03;	0.1900
534.29;	0.1870
534.54;	0.1840
534.79;	0.1811
535.04;	0.1783
535.30;	0.1754
535.55;	0.1726
535.80;	0.1699
536.06;	0.1672
536.31;	0.1645
536.56;	0.1619
536.81;	0.1592
537.07;	0.1567
537.32;	0.1542
537.57;	0.1517
537.82;	0.1492
538.08;	0.1468
538.33;	0.1444
538.58;	0.1420
538.84;	0.1397
539.09;	0.1374
539.34;	0.1352
539.59;	0.1329
539.85;	0.1307
540.10;	0.1286
540.35;	0.1265
540.60;	0.1244
540.86;	0.1223
541.11;	0.1203
541.36;	0.1183
541.61;	0.1163
541.87;	0.1143
542.12;	0.1124
542.37;	0.1105
542.63;	0.1087
542.88;	0.1069
543.13;	0.1051
543.38;	0.1033
543.64;	0.1015
543.89;	0.0998
544.14;	0.0981
544.39;	0.0965
544.65;	0.0948
544.90;	0.0932
545.15;	0.0916
545.41;	0.0901
545.66;	0.0885
545.91;	0.0870
546.16;	0.0855
546.42;	0.0841
546.67;	0.0826
546.92;	0.0812
547.17;	0.0798
547.43;	0.0784
547.68;	0.0771
547.93;	0.0757
548.19;	0.0744
548.44;	0.0731
548.69;	0.0719
548.94;	0.0706
549.20;	0.0694
549.45;	0.0682
549.70;	0.0670
549.95;	0.0659
550.21;	0.0647
550.46;	0.0636
550.71;	0.0625
550.97;	0.0614
551.22;	0.0603
551.47;	0.0593
551.72;	0.0583
551.98;	0.0573
552.23;	0.0563
552.48;	0.0553
552.73;	0.0543
552.99;	0.0534
553.24;	0.0525
553.49;	0.0515
553.75;	0.0506
554.00;	0.0498
554.25;	0.0489
554.50;	0.0481
554.76;	0.0472
555.01;	0.0464
555.26;	0.0456
555.51;	0.0448
555.77;	0.0441
556.02;	0.0433
556.27;	0.0425
556.52;	0.0418
556.78;	0.0411
557.03;	0.0404
557.28;	0.0397
557.54;	0.0390
557.79;	0.0384
558.04;	0.0377
558.29;	0.0371
558.55;	0.0364
558.80;	0.0358
559.05;	0.0352
559.30;	0.0346
559.56;	0.0341
559.81;	0.0335
560.06;	0.0329
560.32;	0.0324
560.57;	0.0318
560.82;	0.0313
561.07;	0.0308
561.33;	0.0303
561.58;	0.0298
561.83;	0.0293
562.08;	0.0288
562.34;	0.0284
562.59;	0.0279
562.84;	0.0275
563.10;	0.0270
563.35;	0.0266
563.60;	0.0262
563.85;	0.0258
564.11;	0.0254
564.36;	0.0250
564.61;	0.0246
564.86;	0.0242
565.12;	0.0239
565.37;	0.0235
565.62;	0.0231
565.88;	0.0228
566.13;	0.0225
566.38;	0.0221
566.63;	0.0218
566.89;	0.0215
567.14;	0.0212
567.39;	0.0209
567.64;	0.0206
567.90;	0.0203
568.15;	0.0200
568.40;	0.0197
568.65;	0.0195
568.91;	0.0192
569.16;	0.0189
569.41;	0.0187
569.67;	0.0185
569.92;	0.0182
570.17;	0.0180
570.42;	0.0178
570.68;	0.0175
570.93;	0.0173
571.18;	0.0171
571.43;	0.0169
571.69;	0.0167
571.94;	0.0165
572.19;	0.0163
572.45;	0.0161
572.70;	0.0159
572.95;	0.0158
573.20;	0.0156
573.46;	0.0154
573.71;	0.0153
573.96;	0.0151
574.21;	0.0150
574.47;	0.0148
574.72;	0.0147
574.97;	0.0145
575.23;	0.0144
575.48;	0.0142
575.73;	0.0141
575.98;	0.0140
576.24;	0.0139
576.49;	0.0137
576.74;	0.0136
576.99;	0.0135
577.25;	0.0134
577.50;	0.0133
577.75;	0.0132
578.01;	0.0131
578.26;	0.0130
578.51;	0.0129
578.76;	0.0128
579.02;	0.0127
579.27;	0.0127
579.52;	0.0126
579.77;	0.0125
580.03;	0.0124
580.28;	0.0124
580.53;	0.0123
580.78;	0.0122
581.04;	0.0122
581.29;	0.0121
581.54;	0.0120
581.80;	0.0120
582.05;	0.0119
582.30;	0.0119
582.55;	0.0118
582.81;	0.0118
583.06;	0.0117
583.31;	0.0117
583.56;	0.0117
583.82;	0.0116
584.07;	0.0116
584.32;	0.0115
584.58;	0.0115
584.83;	0.0115
585.08;	0.0115
585.33;	0.0114
585.59;	0.0114
585.84;	0.0114
586.09;	0.0114
586.34;	0.0113
586.60;	0.0113
586.85;	0.0113
587.10;	0.0113
587.36;	0.0113
587.61;	0.0113
587.86;	0.0113
588.11;	0.0112
588.37;	0.0112
588.62;	0.0112
588.87;	0.0112
589.12;	0.0112
589.38;	0.0112
589.63;	0.0112
589.88;	0.0112
590.14;	0.0112
590.39;	0.0112
590.64;	0.0112
590.89;	0.0112
591.15;	0.0112
591.40;	0.0112
591.65;	0.0113
591.90;	0.0113
592.16;	0.0113
592.41;	0.0113
592.66;	0.0113
592.92;	0.0113
593.17;	0.0113
593.42;	0.0113
593.67;	0.0114
593.93;	0.0114
594.18;	0.0114
594.43;	0.0114
594.68;	0.0114
594.94;	0.0115
595.19;	0.0115
595.44;	0.0115
595.69;	0.0115
595.95;	0.0116
596.20;	0.0116
596.45;	0.0116
596.71;	0.0116
596.96;	0.0117
597.21;	0.0117
597.46;	0.0117
597.72;	0.0117
597.97;	0.0118
598.22;	0.0118
598.47;	0.0118
598.73;	0.0119
598.98;	0.0119
599.23;	0.0119
599.49;	0.0120
599.74;	0.0120
599.99;	0.0120
600.24;	0.0121
600.50;	0.0121
600.75;	0.0121
601.00;	0.0122
601.25;	0.0122
601.51;	0.0123
601.76;	0.0123
602.01;	0.0123
602.27;	0.0124
602.52;	0.0124
602.77;	0.0125
603.02;	0.0125
603.28;	0.0125
603.53;	0.0126
603.78;	0.0126
604.03;	0.0127
604.29;	0.0127
604.54;	0.0127
604.79;	0.0128
605.05;	0.0128
605.30;	0.0129
605.55;	0.0129
605.80;	0.0130
606.06;	0.0130
606.31;	0.0130
606.56;	0.0131
606.81;	0.0131
607.07;	0.0132
607.32;	0.0132
607.57;	0.0133
607.82;	0.0133
608.08;	0.0134
608.33;	0.0134
608.58;	0.0135
608.84;	0.0135
609.09;	0.0136
609.34;	0.0136
609.59;	0.0136
609.85;	0.0137
610.10;	0.0137
610.35;	0.0138
610.60;	0.0138
610.86;	0.0139
611.11;	0.0139
611.36;	0.0140
611.62;	0.0140
611.87;	0.0141
612.12;	0.0141
612.37;	0.0142
612.63;	0.0142
612.88;	0.0143
613.13;	0.0143
613.38;	0.0144
613.64;	0.0144
613.89;	0.0145
614.14;	0.0145
614.40;	0.0146
614.65;	0.0146
614.90;	0.0147
615.15;	0.0147
615.41;	0.0148
615.66;	0.0148
615.91;	0.0149
616.16;	0.0149
616.42;	0.0150
616.67;	0.0150
616.92;	0.0151
617.18;	0.0151
617.43;	0.0152
617.68;	0.0153
617.93;	0.0153
618.19;	0.0154
618.44;	0.0154
618.69;	0.0155
618.94;	0.0155
619.20;	0.0156
619.45;	0.0156
619.70;	0.0157
619.95;	0.0157
620.21;	0.0158
620.46;	0.0158
620.71;	0.0159
620.97;	0.0159
621.22;	0.0160
621.47;	0.0160
621.72;	0.0161
621.98;	0.0161
622.23;	0.0162
622.48;	0.0162
622.73;	0.0163
622.99;	0.0163
623.24;	0.0164
623.49;	0.0164
623.75;	0.0165
624.00;	0.0165
624.25;	0.0166
624.50;	0.0167
624.76;	0.0167
625.01;	0.0168
625.26;	0.0168
625.51;	0.0169
625.77;	0.0169
626.02;	0.0170
626.27;	0.0170
626.53;	0.0171
626.78;	0.0171
627.03;	0.0172
627.28;	0.0172
627.54;	0.0173
627.79;	0.0173
628.04;	0.0174
628.29;	0.0174
628.55;	0.0175
628.80;	0.0175
629.05;	0.0176
629.31;	0.0176
629.56;	0.0177
629.81;	0.0177
630.06;	0.0178
630.32;	0.0178
630.57;	0.0179
630.82;	0.0179
631.07;	0.0180
631.33;	0.0180
631.58;	0.0181
631.83;	0.0181
632.08;	0.0182
632.34;	0.0182
632.59;	0.0183
632.84;	0.0183
633.10;	0.0184
633.35;	0.0184
633.60;	0.0185
633.85;	0.0185
634.11;	0.0186
634.36;	0.0186
634.61;	0.0187
634.86;	0.0187
635.12;	0.0188
635.37;	0.0188
635.62;	0.0189
635.88;	0.0189
636.13;	0.0190
636.38;	0.0190
636.63;	0.0191
636.89;	0.0191
637.14;	0.0191
637.39;	0.0192
637.64;	0.0192
637.90;	0.0193
638.15;	0.0193
638.40;	0.0194
638.66;	0.0194
638.91;	0.0195
639.16;	0.0195
639.41;	0.0196
639.67;	0.0196
639.92;	0.0197
640.17;	0.0197
640.42;	0.0197
640.68;	0.0198
640.93;	0.0198
641.18;	0.0199
641.44;	0.0199
641.69;	0.0200
641.94;	0.0200
642.19;	0.0201
642.45;	0.0201
642.70;	0.0201
642.95;	0.0202
643.20;	0.0202
643.46;	0.0203
643.71;	0.0203
643.96;	0.0204
644.22;	0.0204
644.47;	0.0204
644.72;	0.0205
644.97;	0.0205
645.23;	0.0206
645.48;	0.0206
645.73;	0.0206
645.98;	0.0207
646.24;	0.0207
646.49;	0.0208
646.74;	0.0208
646.99;	0.0208
647.25;	0.0209
647.50;	0.0209
647.75;	0.0210
648.01;	0.0210
648.26;	0.0210
648.51;	0.0211
648.76;	0.0211
649.02;	0.0212
649.27;	0.0212
649.52;	0.0212
649.77;	0.0213
650.03;	0.0213
650.28;	0.0213
650.53;	0.0214
650.79;	0.0214
651.04;	0.0215
651.29;	0.0215
651.54;	0.0215
651.80;	0.0216
652.05;	0.0216
652.30;	0.0216
652.55;	0.0217
652.81;	0.0217
653.06;	0.0217
653.31;	0.0218
653.57;	0.0218
653.82;	0.0218
654.07;	0.0219
654.32;	0.0219
654.58;	0.0219
654.83;	0.0220
655.08;	0.0220
655.33;	0.0220
655.59;	0.0221
655.84;	0.0221
656.09;	0.0221
656.35;	0.0222
656.60;	0.0222
656.85;	0.0222
657.10;	0.0223
657.36;	0.0223
657.61;	0.0223
657.86;	0.0223
658.11;	0.0224
658.37;	0.0224
658.62;	0.0224
658.87;	0.0225
659.12;	0.0225
659.38;	0.0225
659.63;	0.0225
659.88;	0.0226
660.14;	0.0226
660.39;	0.0226
660.64;	0.0226
660.89;	0.0227
661.15;	0.0227
661.40;	0.0227
661.65;	0.0227
661.90;	0.0228
662.16;	0.0228
662.41;	0.0228
662.66;	0.0228
662.92;	0.0229
663.17;	0.0229
663.42;	0.0229
663.67;	0.0229
663.93;	0.0230
664.18;	0.0230
664.43;	0.0230
664.68;	0.0230
664.94;	0.0230
665.19;	0.0231
665.44;	0.0231
665.70;	0.0231
665.95;	0.0231
666.20;	0.0231
666.45;	0.0232
666.71;	0.0232
666.96;	0.0232
667.21;	0.0232
667.46;	0.0232
667.72;	0.0233
667.97;	0.0233
668.22;	0.0233
668.48;	0.0233
668.73;	0.0233
668.98;	0.0233
669.23;	0.0233
669.49;	0.0234
669.74;	0.0234
669.99;	0.0234
670.24;	0.0234
670.50;	0.0234
670.75;	0.0234
671.00;	0.0234
671.25;	0.0235
671.51;	0.0235
671.76;	0.0235
672.01;	0.0235
672.27;	0.0235
672.52;	0.0235
672.77;	0.0235
673.02;	0.0235
673.28;	0.0236
673.53;	0.0236
673.78;	0.0236
674.03;	0.0236
674.29;	0.0236
674.54;	0.0236
674.79;	0.0236
675.05;	0.0236
675.30;	0.0236
675.55;	0.0236
675.80;	0.0236
676.06;	0.0236
676.31;	0.0237
676.56;	0.0237
676.81;	0.0237
677.07;	0.0237
677.32;	0.0237
677.57;	0.0237
677.83;	0.0237
678.08;	0.0237
678.33;	0.0237
678.58;	0.0237
678.84;	0.0237
679.09;	0.0237
679.34;	0.0237
679.59;	0.0237
679.85;	0.0237
680.10;	0.0237
680.35;	0.0237
680.61;	0.0237
680.86;	0.0237
681.11;	0.0237
681.36;	0.0237
681.62;	0.0237
681.87;	0.0237
682.12;	0.0237
682.37;	0.0237
682.63;	0.0237
682.88;	0.0237
683.13;	0.0237
683.39;	0.0237
683.64;	0.0237
683.89;	0.0237
684.14;	0.0237
684.40;	0.0237
684.65;	0.0237
684.90;	0.0237
685.15;	0.0237
685.41;	0.0237
685.66;	0.0237
685.91;	0.0236
686.16;	0.0236
686.42;	0.0236
686.67;	0.0236
686.92;	0.0236
687.18;	0.0236
687.43;	0.0236
687.68;	0.0236
687.93;	0.0236
688.19;	0.0236
688.44;	0.0236
688.69;	0.0236
688.94;	0.0235
689.20;	0.0235
689.45;	0.0235
689.70;	0.0235
689.96;	0.0235
690.21;	0.0235
690.46;	0.0235
690.71;	0.0235
690.97;	0.0235
691.22;	0.0234
691.47;	0.0234
691.72;	0.0234
691.98;	0.0234
692.23;	0.0234
692.48;	0.0234
692.74;	0.0234
692.99;	0.0233
693.24;	0.0233
693.49;	0.0233
693.75;	0.0233
694.00;	0.0233
694.25;	0.0233
694.50;	0.0232
694.76;	0.0232
695.01;	0.0232
695.26;	0.0232
695.52;	0.0232
695.77;	0.0231
696.02;	0.0231
696.27;	0.0231
696.53;	0.0231
696.78;	0.0231
697.03;	0.0230
697.28;	0.0230
697.54;	0.0230
697.79;	0.0230
698.04;	0.0230
698.29;	0.0229
698.55;	0.0229
698.80;	0.0229
699.05;	0.0229
699.31;	0.0228
699.56;	0.0228
699.81;	0.0228
700.06;	0.0228
700.32;	0.0227
700.57;	0.0227
700.82;	0.0227
701.07;	0.0227
701.33;	0.0226
701.58;	0.0226
701.83;	0.0226
702.09;	0.0226
702.34;	0.0225
702.59;	0.0225
702.84;	0.0225
703.10;	0.0225
703.35;	0.0224
703.60;	0.0224
703.85;	0.0224
704.11;	0.0223
704.36;	0.0223
704.61;	0.0223
704.87;	0.0223
705.12;	0.0222
705.37;	0.0222
705.62;	0.0222
705.88;	0.0221
706.13;	0.0221
706.38;	0.0221
706.63;	0.0220
706.89;	0.0220
707.14;	0.0220
707.39;	0.0219
707.65;	0.0219
707.90;	0.0219
708.15;	0.0218
708.40;	0.0218
708.66;	0.0218
708.91;	0.0217
709.16;	0.0217
709.41;	0.0217
709.67;	0.0216
709.92;	0.0216
710.17;	0.0216
710.42;	0.0215
710.68;	0.0215
710.93;	0.0215
711.18;	0.0214
711.44;	0.0214
711.69;	0.0214
711.94;	0.0213
712.19;	0.0213
712.45;	0.0212
712.70;	0.0212
712.95;	0.0212
713.20;	0.0211
713.46;	0.0211
713.71;	0.0210
713.96;	0.0210
714.22;	0.0210
714.47;	0.0209
714.72;	0.0209
714.97;	0.0209
715.23;	0.0208
715.48;	0.0208
715.73;	0.0207
715.98;	0.0207
716.24;	0.0206
716.49;	0.0206
716.74;	0.0206
717.00;	0.0205
717.25;	0.0205
717.50;	0.0204
717.75;	0.0204
718.01;	0.0204
718.26;	0.0203
718.51;	0.0203
718.76;	0.0202
719.02;	0.0202
719.27;	0.0201
719.52;	0.0201
719.78;	0.0201
720.03;	0.0200
720.28;	0.0200
720.53;	0.0199
720.79;	0.0199
721.04;	0.0198
721.29;	0.0198
721.54;	0.0197
721.80;	0.0197
722.05;	0.0197
722.30;	0.0196
722.56;	0.0196
722.81;	0.0195
723.06;	0.0195
723.31;	0.0194
723.57;	0.0194
723.82;	0.0193
724.07;	0.0193
724.32;	0.0192
724.58;	0.0192
724.83;	0.0191
725.08;	0.0191
725.33;	0.0190
725.59;	0.0190
725.84;	0.0190
726.09;	0.0189
726.35;	0.0189
726.60;	0.0188
726.85;	0.0188
727.10;	0.0187
727.36;	0.0187
727.61;	0.0186
727.86;	0.0186
728.11;	0.0185
728.37;	0.0185
728.62;	0.0184
728.87;	0.0184
729.13;	0.0183
729.38;	0.0183
729.63;	0.0182
729.88;	0.0182
730.14;	0.0181
730.39;	0.0181
730.64;	0.0180
730.89;	0.0180
731.15;	0.0179
731.40;	0.0179
731.65;	0.0178
731.91;	0.0178
732.16;	0.0177
732.41;	0.0177
732.66;	0.0176
732.92;	0.0176
733.17;	0.0175
733.42;	0.0175
733.67;	0.0174
733.93;	0.0174
734.18;	0.0173
734.43;	0.0173
734.69;	0.0172
734.94;	0.0171
735.19;	0.0171
735.44;	0.0170
735.70;	0.0170
735.95;	0.0169
736.20;	0.0169
736.45;	0.0168
736.71;	0.0168
736.96;	0.0167
737.21;	0.0167
737.46;	0.0166
737.72;	0.0166
737.97;	0.0165
738.22;	0.0165
738.48;	0.0164
738.73;	0.0164
738.98;	0.0163
739.23;	0.0163
739.49;	0.0162
739.74;	0.0161
739.99;	0.0161
740.24;	0.0160
740.50;	0.0160
740.75;	0.0159
741.00;	0.0159
741.26;	0.0158
741.51;	0.0158
741.76;	0.0157
742.01;	0.0157
742.27;	0.0156
742.52;	0.0156
742.77;	0.0155
743.02;	0.0154
743.28;	0.0154
743.53;	0.0153
743.78;	0.0153
744.04;	0.0152
744.29;	0.0152
744.54;	0.0151
744.79;	0.0151
745.05;	0.0150
745.30;	0.0150
745.55;	0.0149
745.80;	0.0149
746.06;	0.0148
746.31;	0.0147
746.56;	0.0147
746.82;	0.0146
747.07;	0.0146
747.32;	0.0145
747.57;	0.0145
747.83;	0.0144
748.08;	0.0144
748.33;	0.0143
748.58;	0.0143
748.84;	0.0142
749.09;	0.0141
749.34;	0.0141
749.59;	0.0140
749.85;	0.0140
750.10;	0.0139
750.35;	0.0139
750.61;	0.0138
750.86;	0.0138
751.11;	0.0137
751.36;	0.0137
751.62;	0.0136
751.87;	0.0136
752.12;	0.0135
752.37;	0.0134
752.63;	0.0134
752.88;	0.0133
753.13;	0.0133
753.39;	0.0132
753.64;	0.0132
753.89;	0.0131
754.14;	0.0131
754.40;	0.0130
754.65;	0.0130
754.90;	0.0129
755.15;	0.0129
755.41;	0.0128
755.66;	0.0127
755.91;	0.0127
756.17;	0.0126
756.42;	0.0126
756.67;	0.0125
756.92;	0.0125
757.18;	0.0124
757.43;	0.0124
757.68;	0.0123
757.93;	0.0123
758.19;	0.0122
758.44;	0.0122
758.69;	0.0121
758.95;	0.0121
759.20;	0.0120
759.45;	0.0119
759.70;	0.0119
759.96;	0.0118
760.21;	0.0118
760.46;	0.0117
760.71;	0.0117
760.97;	0.0116
761.22;	0.0116
761.47;	0.0115
761.73;	0.0115
761.98;	0.0114
762.23;	0.0114
762.48;	0.0113
762.74;	0.0113
762.99;	0.0112
763.24;	0.0112
763.49;	0.0111
763.75;	0.0111
764.00;	0.0110
764.25;	0.0110
764.50;	0.0109
764.76;	0.0109
765.01;	0.0108
765.26;	0.0108
765.52;	0.0107
765.77;	0.0107
766.02;	0.0106
766.27;	0.0105
766.53;	0.0105
766.78;	0.0104
767.03;	0.0104
767.28;	0.0103
767.54;	0.0103
767.79;	0.0102
768.04;	0.0102
768.30;	0.0101
768.55;	0.0101
768.80;	0.0100
769.05;	0.0100
769.31;	0.0099
769.56;	0.0099
769.81;	0.0098
770.06;	0.0098
770.32;	0.0098
770.57;	0.0097
770.82;	0.0097
771.08;	0.0096
771.33;	0.0096
771.58;	0.0095
771.83;	0.0095
772.09;	0.0094
772.34;	0.0094
772.59;	0.0093
772.84;	0.0093
773.10;	0.0092
773.35;	0.0092
773.60;	0.0091
773.86;	0.0091
774.11;	0.0090
774.36;	0.0090
774.61;	0.0089
774.87;	0.0089
775.12;	0.0088
775.37;	0.0088
775.62;	0.0087
775.88;	0.0087
776.13;	0.0087
776.38;	0.0086
776.63;	0.0086
776.89;	0.0085
777.14;	0.0085
777.39;	0.0084
777.65;	0.0084
777.90;	0.0083
778.15;	0.0083
778.40;	0.0082
778.66;	0.0082
778.91;	0.0082
779.16;	0.0081
779.41;	0.0081
779.67;	0.0080
779.92;	0.0080
780.17;	0.0079
780.43;	0.0079
780.68;	0.0078
780.93;	0.0078
781.18;	0.0078
781.44;	0.0077
781.69;	0.0077
781.94;	0.0076
782.19;	0.0076
782.45;	0.0075
782.70;	0.0075
782.95;	0.0074
783.21;	0.0074
783.46;	0.0074
783.71;	0.0073
783.96;	0.0073
784.22;	0.0072
784.47;	0.0072
784.72;	0.0072
784.97;	0.0071
785.23;	0.0071
785.48;	0.0070
785.73;	0.0070
785.99;	0.0069
786.24;	0.0069
786.49;	0.0069
786.74;	0.0068
787.00;	0.0068
787.25;	0.0067
787.50;	0.0067
787.75;	0.0067
788.01;	0.0066
788.26;	0.0066
788.51;	0.0065
788.76;	0.0065
789.02;	0.0065
789.27;	0.0064
789.52;	0.0064
789.78;	0.0063
790.03;	0.0063
790.28;	0.0063
790.53;	0.0062
790.79;	0.0062
791.04;	0.0062
791.29;	0.0061
791.54;	0.0061
791.80;	0.0060
792.05;	0.0060
792.30;	0.0060
792.56;	0.0059
792.81;	0.0059
793.06;	0.0059
793.31;	0.0058
793.57;	0.0058
793.82;	0.0057
794.07;	0.0057
794.32;	0.0057
794.58;	0.0056
794.83;	0.0056
795.08;	0.0056
795.34;	0.0055
795.59;	0.0055
795.84;	0.0055
796.09;	0.0054
796.35;	0.0054
796.60;	0.0054
796.85;	0.0053
797.10;	0.0053
797.36;	0.0052
797.61;	0.0052
797.86;	0.0052
798.12;	0.0051
798.37;	0.0051
798.62;	0.0051
798.87;	0.0050
799.13;	0.0050
799.38;	0.0050
799.63;	0.0049
799.88;	0.0049
800.14;	0.0049
800.39;	0.0048
800.64;	0.0048
800.90;	0.0048
801.15;	0.0047
801.40;	0.0047
801.65;	0.0047
801.91;	0.0047
802.16;	0.0046
802.41;	0.0046
802.66;	0.0046
802.92;	0.0045
803.17;	0.0045
803.42;	0.0045
803.67;	0.0044
803.93;	0.0044
804.18;	0.0044
804.43;	0.0043
804.69;	0.0043
804.94;	0.0043
805.19;	0.0043
805.44;	0.0042
805.70;	0.0042
805.95;	0.0042
806.20;	0.0041
806.45;	0.0041
806.71;	0.0041
806.96;	0.0041
807.21;	0.0040
807.47;	0.0040
807.72;	0.0040
807.97;	0.0039
808.22;	0.0039
808.48;	0.0039
808.73;	0.0039
808.98;	0.0038
809.23;	0.0038
809.49;	0.0038
809.74;	0.0037
809.99;	0.0037
810.25;	0.0037
810.50;	0.0037
810.75;	0.0036
811.00;	0.0036
811.26;	0.0036
811.51;	0.0036
811.76;	0.0035
812.01;	0.0035
812.27;	0.0035
812.52;	0.0035
812.77;	0.0034
813.03;	0.0034
813.28;	0.0034
813.53;	0.0034
813.78;	0.0033
814.04;	0.0033
814.29;	0.0033
814.54;	0.0033
814.79;	0.0032
815.05;	0.0032
815.30;	0.0032
815.55;	0.0032
815.80;	0.0031
816.06;	0.0031
816.31;	0.0031
816.56;	0.0031
816.82;	0.0030
817.07;	0.0030
817.32;	0.0030
817.57;	0.0030
817.83;	0.0029
818.08;	0.0029
818.33;	0.0029
818.58;	0.0029
818.84;	0.0029
819.09;	0.0028
819.34;	0.0028
819.60;	0.0028
819.85;	0.0028
820.10;	0.0027
820.35;	0.0027
820.61;	0.0027
820.86;	0.0027
821.11;	0.0027
821.36;	0.0026
821.62;	0.0026
821.87;	0.0026
822.12;	0.0026
822.38;	0.0026
822.63;	0.0025
822.88;	0.0025
823.13;	0.0025
823.39;	0.0025
823.64;	0.0025
823.89;	0.0024
824.14;	0.0024
824.40;	0.0024
824.65;	0.0024
824.90;	0.0024
825.16;	0.0023
825.41;	0.0023
825.66;	0.0023
825.91;	0.0023
826.17;	0.0023
826.42;	0.0022
826.67;	0.0022
826.92;	0.0022
827.18;	0.0022
827.43;	0.0022
827.68;	0.0022
827.93;	0.0021
828.19;	0.0021
828.44;	0.0021
828.69;	0.0021
828.95;	0.0021
829.20;	0.0021
829.45;	0.0020
829.70;	0.0020
829.96;	0.0020
830.21;	0.0020
830.46;	0.0020
830.71;	0.0020
830.97;	0.0019
831.22;	0.0019
831.47;	0.0019
831.73;	0.0019
831.98;	0.0019
832.23;	0.0019
832.48;	0.0018
832.74;	0.0018
832.99;	0.0018
833.24;	0.0018
833.49;	0.0018
833.75;	0.0018
834.00;	0.0017
