wavelength, nm;	absorption
396.00;	1.6580
396.38;	1.6781
396.76;	1.6982
397.14;	1.7185
397.52;	1.7388
397.90;	1.7591
398.28;	1.7796
398.66;	1.8000
399.04;	1.8206
399.42;	1.8412
399.80;	1.8618
400.18;	1.8825
400.56;	1.9032
400.94;	1.9240
401.32;	1.9448
401.70;	1.9656
402.07;	1.9864
402.45;	2.0073
402.83;	2.0282
403.21;	2.0490
403.59;	2.0699
403.97;	2.0909
404.35;	2.1118
404.73;	2.1327
405.11;	2.1536
405.49;	2.1744
405.87;	2.1953
406.25;	2.2161
406.63;	2.2370
407.01;	2.2577
407.39;	2.2785
407.77;	2.2992
408.15;	2.3199
408.53;	2.3405
408.91;	2.3611
409.29;	2.3816
409.67;	2.4020
410.05;	2.4224
410.43;	2.4427
410.81;	2.4630
411.19;	2.4831
411.57;	2.5032
411.95;	2.5232
412.33;	2.5431
412.71;	2.5629
413.09;	2.5826
413.47;	2.6022
413.84;	2.6216
414.22;	2.6410
414.60;	2.6602
414.98;	2.6793
415.36;	2.6983
415.74;	2.7171
416.12;	2.7358
416.50;	2.7543
416.88;	2.7727
417.26;	2.7909
417.64;	2.8090
418.02;	2.8269
418.40;	2.8447
418.78;	2.8622
419.16;	2.8796
419.54;	2.8968
419.92;	2.9138
420.30;	2.9306
420.68;	2.9473
421.06;	2.9637
421.44;	2.9799
421.82;	2.9959
422.20;	3.0117
422.58;	3.0273
422.96;	3.0426
423.34;	3.0577
423.72;	3.0726
424.10;	3.0873
424.48;	3.1017
424.86;	3.1159
425.23;	3.1298
425.61;	3.1435
425.99;	3.1569
426.37;	3.1700
426.75;	3.1829
427.13;	3.1955
427.51;	3.2079
427.89;	3.2200
428.27;	3.2318
428.65;	3.2433
429.03;	3.2546
429.41;	3.2655
429.79;	3.2762
430.17;	3.2866
430.55;	3.2966
430.93;	3.3064
431.31;	3.3159
431.69;	3.3250
432.07;	3.3339
432.45;	3.3425
432.83;	3.3507
433.21;	3.3586
433.59;	3.3662
433.97;	3.3735
434.35;	3.3805
434.73;	3.3871
435.11;	3.3934
435.49;	3.3994
435.87;	3.4051
436.25;	3.4104
436.63;	3.4154
437.00;	3.4201
437.38;	3.4244
437.76;	3.4284
438.14;	3.4320
438.52;	3.4353
438.90;	3.4383
439.28;	3.4409
439.66;	3.4432
440.04;	3.4452
440.42;	3.4468
440.80;	3.4480
441.18;	3.4490
441.56;	3.4495
441.94;	3.4498
442.32;	3.4496
442.70;	3.4492
443.08;	3.4484
443.46;	3.4472
443.84;	3.4457
444.22;	3.4439
444.60;	3.4417
444.98;	3.4392
445.36;	3.4364
445.74;	3.4332
446.12;	3.4296
446.50;	3.4257
446.88;	3.4215
447.26;	3.4170
447.64;	3.4121
448.02;	3.4069
448.40;	3.4013
448.77;	3.3954
449.15;	3.3892
449.53;	3.3827
449.91;	3.3758
450.29;	3.3686
450.67;	3.3611
451.05;	3.3533
451.43;	3.3452
451.81;	3.3367
452.19;	3.3280
452.57;	3.3189
452.95;	3.3095
453.33;	3.2999
453.71;	3.2899
454.09;	3.2796
454.47;	3.2691
454.85;	3.2582
455.23;	3.2470
455.61;	3.2356
455.99;	3.2239
456.37;	3.2119
456.75;	3.1996
457.13;	3.1871
457.51;	3.1743
457.89;	3.1612
458.27;	3.1479
458.65;	3.1343
459.03;	3.1205
459.41;	3.1064
459.79;	3.0921
460.16;	3.0775
460.54;	3.0627
460.92;	3.0476
461.30;	3.0324
461.68;	3.0169
462.06;	3.0012
462.44;	2.9852
462.82;	2.9691
463.20;	2.9527
463.58;	2.9362
463.96;	2.9194
464.34;	2.9025
464.72;	2.8854
465.10;	2.8680
465.48;	2.8505
465.86;	2.8329
466.24;	2.8150
466.62;	2.7970
467.00;	2.7788
467.38;	2.7605
467.76;	2.7420
468.14;	2.7234
468.52;	2.7046
468.90;	2.6857
469.28;	2.6666
469.66;	2.6475
470.04;	2.6281
470.42;	2.6087
470.80;	2.5892
471.18;	2.5695
471.56;	2.5498
471.93;	2.5299
472.31;	2.5100
472.69;	2.4900
473.07;	2.4698
473.45;	2.4496
473.83;	2.4294
474.21;	2.4090
474.59;	2.3886
474.97;	2.3681
475.35;	2.3475
475.73;	2.3270
476.11;	2.3063
476.49;	2.2856
476.87;	2.2649
477.25;	2.2441
477.63;	2.2233
478.01;	2.2025
478.39;	2.1817
478.77;	2.1608
479.15;	2.1399
479.53;	2.1190
479.91;	2.0981
480.29;	2.0772
480.67;	2.0564
481.05;	2.0355
481.43;	2.0146
481.81;	1.9938
482.19;	1.9729
482.57;	1.9521
482.95;	1.9313
483.33;	1.9106
483.70;	1.8899
484.08;	1.8692
484.46;	1.8485
484.84;	1.8279
485.22;	1.8074
485.60;	1.7869
485.98;	1.7665
486.36;	1.7461
486.74;	1.7258
487.12;	1.7056
487.50;	1.6854
487.88;	1.6653
488.26;	1.6453
488.64;	1.6253
489.02;	1.6055
489.40;	1.5857
489.78;	1.5660
490.16;	1.5464
490.54;	1.5269
490.92;	1.5075
491.30;	1.4882
491.68;	1.4690
492.06;	1.4499
492.44;	1.4309
492.82;	1.4120
493.20;	1.3933
493.58;	1.3746
493.96;	1.3561
494.34;	1.3376
494.72;	1.3193
495.09;	1.3012
495.47;	1.2831
495.85;	1.2652
496.23;	1.2474
496.61;	1.2297
496.99;	1.2121
497.37;	1.1947
497.75;	1.1774
498.13;	1.1603
498.51;	1.1433
498.89;	1.1264
499.27;	1.1097
499.65;	1.0931
500.03;	1.0767
500.41;	1.0604
500.79;	1.0442
501.17;	1.0282
501.55;	1.0123
501.93;	0.9966
502.31;	0.9810
502.69;	0.9656
503.07;	0.9503
503.45;	0.9352
503.83;	0.9202
504.21;	0.9054
504.59;	0.8908
504.97;	0.8762
505.35;	0.8619
505.73;	0.8477
506.11;	0.8336
506.49;	0.8197
506.86;	0.8060
507.24;	0.7924
507.62;	0.7789
508.00;	0.7656
508.38;	0.7525
508.76;	0.7395
509.14;	0.7267
509.52;	0.7140
509.90;	0.7015
510.28;	0.6892
510.66;	0.6769
511.04;	0.6649
511.42;	0.6530
511.80;	0.6412
512.18;	0.6296
512.56;	0.6182
512.94;	0.6069
513.32;	0.5957
513.70;	0.5847
514.08;	0.5739
514.46;	0.5632
514.84;	0.5526
515.22;	0.5422
515.60;	0.5320
515.98;	0.5218
516.36;	0.5119
516.74;	0.5021
517.12;	0.4924
517.50;	0.4828
517.88;	0.4734
518.26;	0.4642
518.63;	0.4551
519.01;	0.4461
519.39;	0.4372
519.77;	0.4285
520.15;	0.4200
520.53;	0.4115
520.91;	0.4032
521.29;	0.3951
521.67;	0.3870
522.05;	0.3791
522.43;	0.3714
522.81;	0.3637
523.19;	0.3562
523.57;	0.3488
523.95;	0.3415
524.33;	0.3344
524.71;	0.3274
525.09;	0.3205
525.47;	0.3137
525.85;	0.3070
526.23;	0.3005
526.61;	0.2940
526.99;	0.2877
527.37;	0.2815
527.75;	0.2754
528.13;	0.2695
528.51;	0.2636
528.89;	0.2578
529.27;	0.2522
529.65;	0.2466
530.02;	0.2412
530.40;	0.2358
530.78;	0.2306
531.16;	0.2255
531.54;	0.2204
531.92;	0.2155
532.30;	0.2107
532.68;	0.2059
533.06;	0.2013
533.44;	0.1967
533.82;	0.1923
534.20;	0.1879
534.58;	0.1836
534.96;	0.1794
535.34;	0.1753
535.72;	0.1713
536.10;	0.1673
536.48;	0.1635
536.86;	0.1597
537.24;	0.1560
537.62;	0.1524
538.00;	0.1489
538.38;	0.1454
538.76;	0.1420
539.14;	0.1387
539.52;	0.1355
539.90;	0.1323
540.28;	0.1292
540.66;	0.1262
541.04;	0.1232
541.42;	0.1204
541.79;	0.1175
542.17;	0.1148
542.55;	0.1121
542.93;	0.1095
543.31;	0.1069
543.69;	0.1044
544.07;	0.1020
544.45;	0.0996
544.83;	0.0973
545.21;	0.0950
545.59;	0.0928
545.97;	0.0906
546.35;	0.0885
546.73;	0.0865
547.11;	0.0845
547.49;	0.0825
547.87;	0.0806
548.25;	0.0788
548.63;	0.0770
549.01;	0.0752
549.39;	0.0735
549.77;	0.0718
550.15;	0.0702
550.53;	0.0686
550.91;	0.0671
551.29;	0.0656
551.67;	0.0642
552.05;	0.0627
552.43;	0.0614
552.81;	0.0600
553.19;	0.0587
553.56;	0.0575
553.94;	0.0563
554.32;	0.0551
554.70;	0.0539
555.08;	0.0528
555.46;	0.0517
555.84;	0.0507
556.22;	0.0497
556.60;	0.0487
556.98;	0.0477
557.36;	0.0468
557.74;	0.0459
558.12;	0.0450
558.50;	0.0442
558.88;	0.0433
559.26;	0.0426
559.64;	0.0418
560.02;	0.0411
560.40;	0.0403
560.78;	0.0397
561.16;	0.0390
561.54;	0.0384
561.92;	0.0377
562.30;	0.0371
562.68;	0.0366
563.06;	0.0360
563.44;	0.0355
563.82;	0.0350
564.20;	0.0345
564.58;	0.0340
564.95;	0.0335
565.33;	0.0331
565.71;	0.0327
566.09;	0.0323
566.47;	0.0319
566.85;	0.0315
567.23;	0.0312
567.61;	0.0309
567.99;	0.0305
568.37;	0.0302
568.75;	0.0299
569.13;	0.0297
569.51;	0.0294
569.89;	0.0292
570.27;	0.0289
570.65;	0.0287
571.03;	0.0285
571.41;	0.0283
571.79;	0.0281
572.17;	0.0279
572.55;	0.0278
572.93;	0.0276
573.31;	0.0275
573.69;	0.0274
574.07;	0.0272
574.45;	0.0271
574.83;	0.0270
575.21;	0.0269
575.59;	0.0269
575.97;	0.0268
576.35;	0.0267
576.72;	0.0267
577.10;	0.0266
577.48;	0.0266
577.86;	0.0266
578.24;	0.0265
578.62;	0.0265
579.00;	0.0265
579.38;	0.0265
579.76;	0.0265
580.14;	0.0265
580.52;	0.0266
580.90;	0.0266
581.28;	0.0266
581.66;	0.0267
582.04;	0.0267
582.42;	0.0268
582.80;	0.0268
583.18;	0.0269
583.56;	0.0269
583.94;	0.0270
584.32;	0.0271
584.70;	0.0272
585.08;	0.0273
585.46;	0.0274
585.84;	0.0275
586.22;	0.0276
586.60;	0.0277
586.98;	0.0278
587.36;	0.0279
587.74;	0.0280
588.12;	0.0281
588.49;	0.0282
588.87;	0.0284
589.25;	0.0285
589.63;	0.0286
590.01;	0.0288
590.39;	0.0289
590.77;	0.0291
591.15;	0.0292
591.53;	0.0294
591.91;	0.0295
592.29;	0.0297
592.67;	0.0298
593.05;	0.0300
593.43;	0.0302
593.81;	0.0303
594.19;	0.0305
594.57;	0.0307
594.95;	0.0308
595.33;	0.0310
595.71;	0.0312
596.09;	0.0314
596.47;	0.0316
596.85;	0.0317
597.23;	0.0319
597.61;	0.0321
597.99;	0.0323
598.37;	0.0325
598.75;	0.0327
599.13;	0.0329
599.51;	0.0331
599.88;	0.0333
600.26;	0.0335
600.64;	0.0337
601.02;	0.0339
601.40;	0.0341
601.78;	0.0343
602.16;	0.0345
602.54;	0.0347
602.92;	0.0349
603.30;	0.0351
603.68;	0.0353
604.06;	0.0355
604.44;	0.0358
604.82;	0.0360
605.20;	0.0362
605.58;	0.0364
605.96;	0.0366
606.34;	0.0368
606.72;	0.0370
607.10;	0.0373
607.48;	0.0375
607.86;	0.0377
608.24;	0.0379
608.62;	0.0381
609.00;	0.0384
609.38;	0.0386
609.76;	0.0388
610.14;	0.0390
610.52;	0.0393
610.90;	0.0395
611.28;	0.0397
611.65;	0.0399
612.03;	0.0402
612.41;	0.0404
612.79;	0.0406
613.17;	0.0408
613.55;	0.0411
613.93;	0.0413
614.31;	0.0415
614.69;	0.0418
615.07;	0.0420
615.45;	0.0422
615.83;	0.0424
616.21;	0.0427
616.59;	0.0429
616.97;	0.0431
617.35;	0.0434
617.73;	0.0436
618.11;	0.0438
618.49;	0.0441
618.87;	0.0443
619.25;	0.0445
619.63;	0.0447
620.01;	0.0450
620.39;	0.0452
620.77;	0.0454
621.15;	0.0457
621.53;	0.0459
621.91;	0.0461
622.29;	0.0463
622.67;	0.0466
623.05;	0.0468
623.42;	0.0470
623.80;	0.0472
624.18;	0.0475
624.56;	0.0477
624.94;	0.0479
625.32;	0.0482
625.70;	0.0484
626.08;	0.0486
626.46;	0.0488
626.84;	0.0490
627.22;	0.0493
627.60;	0.0495
627.98;	0.0497
628.36;	0.0499
628.74;	0.0502
629.12;	0.0504
629.50;	0.0506
629.88;	0.0508
630.26;	0.0510
630.64;	0.0513
631.02;	0.0515
631.40;	0.0517
631.78;	0.0519
632.16;	0.0521
632.54;	0.0523
632.92;	0.0525
633.30;	0.0528
633.68;	0.0530
634.06;	0.0532
634.44;	0.0534
634.81;	0.0536
635.19;	0.0538
635.57;	0.0540
635.95;	0.0542
636.33;	0.0544
636.71;	0.0546
637.09;	0.0548
637.47;	0.0550
637.85;	0.0552
638.23;	0.0554
638.61;	0.0556
638.99;	0.0558
639.37;	0.0560
639.75;	0.0562
640.13;	0.0564
640.51;	0.0566
640.89;	0.0568
641.27;	0.0570
641.65;	0.0572
642.03;	0.0574
642.41;	0.0576
642.79;	0.0578
643.17;	0.0580
643.55;	0.0581
643.93;	0.0583
644.31;	0.0585
644.69;	0.0587
645.07;	0.0589
645.45;	0.0590
645.83;	0.0592
646.21;	0.0594
646.58;	0.0596
646.96;	0.0597
647.34;	0.0599
647.72;	0.0601
648.10;	0.0602
648.48;	0.0604
648.86;	0.0606
649.24;	0.0607
649.62;	0.0609
650.00;	0.0611
650.38;	0.0612
650.76;	0.0614
651.14;	0.0615
651.52;	0.0617
651.90;	0.0618
652.28;	0.0620
652.66;	0.0621
653.04;	0.0623
653.42;	0.0624
653.80;	0.0626
654.18;	0.0627
654.56;	0.0629
654.94;	0.0630
655.32;	0.0632
655.70;	0.0633
656.08;	0.0634
656.46;	0.0636
656.84;	0.0637
657.22;	0.0638
657.60;	0.0639
657.98;	0.0641
658.35;	0.0642
658.73;	0.0643
659.11;	0.0644
659.49;	0.0646
659.87;	0.0647
660.25;	0.0648
660.63;	0.0649
661.01;	0.0650
661.39;	0.0651
661.77;	0.0652
662.15;	0.0653
662.53;	0.0654
662.91;	0.0655
663.29;	0.0656
663.67;	0.0657
664.05;	0.0658
664.43;	0.0659
664.81;	0.0660
665.19;	0.0661
665.57;	0.0662
665.95;	0.0663
666.33;	0.0664
666.71;	0.0664
667.09;	0.0665
667.47;	0.0666
667.85;	0.0667
668.23;	0.0667
668.61;	0.0668
668.99;	0.0669
669.37;	0.0669
669.74;	0.0670
670.12;	0.0671
670.50;	0.0671
670.88;	0.0672
671.26;	0.0673
671.64;	0.0673
672.02;	0.0674
672.40;	0.0674
672.78;	0.0675
673.16;	0.0675
673.54;	0.0675
673.92;	0.0676
674.30;	0.0676
674.68;	0.0677
675.06;	0.0677
675.44;	0.0677
675.82;	0.0678
676.20;	0.0678
676.58;	0.0678
676.96;	0.0678
677.34;	0.0679
677.72;	0.0679
678.10;	0.0679
678.48;	0.0679
678.86;	0.0679
679.24;	0.0679
679.62;	0.0680
680.00;	0.0680
680.38;	0.0680
680.76;	0.0680
681.14;	0.0680
681.51;	0.0680
681.89;	0.0680
682.27;	0.0680
682.65;	0.0679
683.03;	0.0679
683.41;	0.0679
683.79;	0.0679
684.17;	0.0679
684.55;	0.0679
684.93;	0.0678
685.31;	0.0678
685.69;	0.0678
686.07;	0.0678
686.45;	0.0677
686.83;	0.0677
687.21;	0.0677
687.59;	0.0676
687.97;	0.0676
688.35;	0.0676
688.73;	0.0675
689.11;	0.0675
689.49;	0.0674
689.87;	0.0674
690.25;	0.0673
690.63;	0.0673
691.01;	0.0672
691.39;	0.0672
691.77;	0.0671
692.15;	0.0670
692.53;	0.0670
692.91;	0.0669
693.28;	0.0668
693.66;	0.0668
694.04;	0.0667
694.42;	0.0666
694.80;	0.0665
695.18;	0.0665
695.56;	0.0664
695.94;	0.0663
696.32;	0.0662
696.70;	0.0661
697.08;	0.0660
697.46;	0.0659
697.84;	0.0659
698.22;	0.0658
698.60;	0.0657
698.98;	0.0656
699.36;	0.0655
699.74;	0.0654
700.12;	0.0653
700.50;	0.0651
700.88;	0.0650
701.26;	0.0649
701.64;	0.0648
702.02;	0.0647
702.40;	0.0646
702.78;	0.0645
703.16;	0.0643
703.54;	0.0642
703.92;	0.0641
704.30;	0.0640
704.67;	0.0639
705.05;	0.0637
705.43;	0.0636
705.81;	0.0635
706.19;	0.0633
706.57;	0.0632
706.95;	0.0631
707.33;	0.0629
707.71;	0.0628
708.09;	0.0626
708.47;	0.0625
708.85;	0.0623
709.23;	0.0622
709.61;	0.0620
709.99;	0.0619
710.37;	0.0617
710.75;	0.0616
711.13;	0.0614
711.51;	0.0613
711.89;	0.0611
712.27;	0.0610
712.65;	0.0608
713.03;	0.0606
713.41;	0.0605
713.79;	0.0603
714.17;	0.0601
714.55;	0.0600
714.93;	0.0598
715.31;	0.0596
715.69;	0.0594
716.07;	0.0593
716.44;	0.0591
716.82;	0.0589
717.20;	0.0587
717.58;	0.0586
717.96;	0.0584
718.34;	0.0582
718.72;	0.0580
719.10;	0.0578
719.48;	0.0576
719.86;	0.0574
720.24;	0.0573
720.62;	0.0571
721.00;	0.0569
721.38;	0.0567
721.76;	0.0565
722.14;	0.0563
722.52;	0.0561
722.90;	0.0559
723.28;	0.0557
723.66;	0.0555
724.04;	0.0553
724.42;	0.0551
724.80;	0.0549
725.18;	0.0547
725.56;	0.0545
725.94;	0.0543
726.32;	0.0541
726.70;	0.0539
727.08;	0.0537
727.46;	0.0534
727.84;	0.0532
728.21;	0.0530
728.59;	0.0528
728.97;	0.0526
729.35;	0.0524
729.73;	0.0522
730.11;	0.0520
730.49;	0.0517
730.87;	0.0515
731.25;	0.0513
731.63;	0.0511
732.01;	0.0509
732.39;	0.0506
732.77;	0.0504
733.15;	0.0502
733.53;	0.0500
733.91;	0.0498
734.29;	0.0495
734.67;	0.0493
735.05;	0.0491
735.43;	0.0489
735.81;	0.0486
736.19;	0.0484
736.57;	0.0482
736.95;	0.0480
737.33;	0.0477
737.71;	0.0475
738.09;	0.0473
738.47;	0.0470
738.85;	0.0468
739.23;	0.0466
739.60;	0.0464
739.98;	0.0461
740.36;	0.0459
740.74;	0.0457
741.12;	0.0454
741.50;	0.0452
741.88;	0.0450
742.26;	0.0447
742.64;	0.0445
743.02;	0.0443
743.40;	0.0440
743.78;	0.0438
744.16;	0.0436
744.54;	0.0433
744.92;	0.0431
745.30;	0.0429
745.68;	0.0426
746.06;	0.0424
746.44;	0.0422
746.82;	0.0419
747.20;	0.0417
747.58;	0.0415
747.96;	0.0412
748.34;	0.0410
748.72;	0.0408
749.10;	0.0405
749.48;	0.0403
749.86;	0.0401
750.24;	0.0398
750.62;	0.0396
751.00;	0.0394
751.37;	0.0391
751.75;	0.0389
752.13;	0.0387
752.51;	0.0384
752.89;	0.0382
753.27;	0.0380
753.65;	0.0378
754.03;	0.0375
754.41;	0.0373
754.79;	0.0371
755.17;	0.0368
755.55;	0.0366
755.93;	0.0364
756.31;	0.0361
756.69;	0.0359
757.07;	0.0357
757.45;	0.0354
757.83;	0.0352
758.21;	0.0350
758.59;	0.0348
758.97;	0.0345
759.35;	0.0343
759.73;	0.0341
760.11;	0.0339
760.49;	0.0336
760.87;	0.0334
761.25;	0.0332
761.63;	0.0329
762.01;	0.0327
762.39;	0.0325
762.77;	0.0323
763.14;	0.0321
763.52;	0.0318
763.90;	0.0316
764.28;	0.0314
764.66;	0.0312
765.04;	0.0309
765.42;	0.0307
765.80;	0.0305
766.18;	0.0303
766.56;	0.0301
766.94;	0.0299
767.32;	0.0296
767.70;	0.0294
768.08;	0.0292
768.46;	0.0290
768.84;	0.0288
769.22;	0.0286
769.60;	0.0284
769.98;	0.0281
770.36;	0.0279
770.74;	0.0277
771.12;	0.0275
771.50;	0.0273
771.88;	0.0271
772.26;	0.0269
772.64;	0.0267
773.02;	0.0265
773.40;	0.0263
773.78;	0.0261
774.16;	0.0259
774.53;	0.0256
774.91;	0.0254
775.29;	0.0252
775.67;	0.0250
776.05;	0.0248
776.43;	0.0246
776.81;	0.0244
777.19;	0.0242
777.57;	0.0241
777.95;	0.0239
778.33;	0.0237
778.71;	0.0235
779.09;	0.0233
779.47;	0.0231
779.85;	0.0229
780.23;	0.0227
780.61;	0.0225
780.99;	0.0223
781.37;	0.0221
781.75;	0.0219
782.13;	0.0218
782.51;	0.0216
782.89;	0.0214
783.27;	0.0212
783.65;	0.0210
784.03;	0.0208
784.41;	0.0207
784.79;	0.0205
785.17;	0.0203
785.55;	0.0201
785.93;	0.0199
786.30;	0.0198
786.68;	0.0196
787.06;	0.0194
787.44;	0.0192
787.82;	0.0191
788.20;	0.0189
788.58;	0.0187
788.96;	0.0186
789.34;	0.0184
789.72;	0.0182
790.10;	0.0181
790.48;	0.0179
790.86;	0.0177
791.24;	0.0176
791.62;	0.0174
792.00;	0.0172
