wavelength, nm;	absorption
398.00;	1.7828
398.27;	1.7973
398.53;	1.8119
398.80;	1.8265
399.07;	1.8411
399.34;	1.8558
399.60;	1.8705
399.87;	1.8852
400.14;	1.8999
400.41;	1.9146
400.67;	1.9294
400.94;	1.9442
401.21;	1.9590
401.48;	1.9738
401.74;	1.9886
402.01;	2.0034
402.28;	2.0183
402.55;	2.0331
402.81;	2.0480
403.08;	2.0628
403.35;	2.0777
403.62;	2.0926
403.88;	2.1075
404.15;	2.1224
404.42;	2.1372
404.69;	2.1521
404.95;	2.1670
405.22;	2.1818
405.49;	2.1967
405.76;	2.2116
406.02;	2.2264
406.29;	2.2412
406.56;	2.2560
406.83;	2.2708
407.09;	2.2856
407.36;	2.3004
407.63;	2.3151
407.90;	2.3299
408.16;	2.3446
408.43;	2.3593
408.70;	2.3739
408.97;	2.3886
409.23;	2.4032
409.50;	2.4177
409.77;	2.4323
410.04;	2.4468
410.30;	2.4612
410.57;	2.4757
410.84;	2.4901
411.11;	2.5044
411.37;	2.5187
411.64;	2.5330
411.91;	2.5472
412.18;	2.5614
412.44;	2.5755
412.71;	2.5896
412.98;	2.6036
413.25;	2.6176
413.51;	2.6315
413.78;	2.6453
414.05;	2.6591
414.32;	2.6729
414.58;	2.6865
414.85;	2.7002
415.12;	2.7137
415.39;	2.7272
415.65;	2.7406
415.92;	2.7539
416.19;	2.7672
416.45;	2.7804
416.72;	2.7935
416.99;	2.8066
417.26;	2.8195
417.52;	2.8324
417.79;	2.8452
418.06;	2.8579
418.33;	2.8705
418.59;	2.8831
418.86;	2.8955
419.13;	2.9079
419.40;	2.9202
419.66;	2.9324
419.93;	2.9444
420.20;	2.9564
420.47;	2.9683
420.73;	2.9801
421.00;	2.9918
421.27;	3.0034
421.54;	3.0149
421.80;	3.0262
422.07;	3.0375
422.34;	3.0487
422.61;	3.0597
422.87;	3.0706
423.14;	3.0815
423.41;	3.0922
423.68;	3.1028
423.94;	3.1132
424.21;	3.1236
424.48;	3.1338
424.75;	3.1439
425.01;	3.1539
425.28;	3.1638
425.55;	3.1735
425.82;	3.1831
426.08;	3.1926
426.35;	3.2019
426.62;	3.2111
426.89;	3.2202
427.15;	3.2292
427.42;	3.2380
427.69;	3.2467
427.96;	3.2552
428.22;	3.2636
428.49;	3.2719
428.76;	3.2800
429.03;	3.2879
429.29;	3.2958
429.56;	3.3035
429.83;	3.3110
430.10;	3.3184
430.36;	3.3256
430.63;	3.3327
430.90;	3.3397
431.17;	3.3465
431.43;	3.3531
431.70;	3.3596
431.97;	3.3659
432.24;	3.3721
432.50;	3.3781
432.77;	3.3840
433.04;	3.3897
433.31;	3.3952
433.57;	3.4006
433.84;	3.4059
434.11;	3.4109
434.37;	3.4158
434.64;	3.4206
434.91;	3.4252
435.18;	3.4296
435.44;	3.4338
435.71;	3.4379
435.98;	3.4418
436.25;	3.4456
436.51;	3.4492
436.78;	3.4526
437.05;	3.4559
437.32;	3.4589
437.58;	3.4619
437.85;	3.4646
438.12;	3.4672
438.39;	3.4696
438.65;	3.4718
438.92;	3.4739
439.19;	3.4758
439.46;	3.4775
439.72;	3.4791
439.99;	3.4805
440.26;	3.4817
440.53;	3.4827
440.79;	3.4836
441.06;	3.4843
441.33;	3.4848
441.60;	3.4851
441.86;	3.4853
442.13;	3.4853
442.40;	3.4851
442.67;	3.4848
442.93;	3.4843
443.20;	3.4836
443.47;	3.4827
443.74;	3.4817
444.00;	3.4805
444.27;	3.4791
444.54;	3.4776
444.81;	3.4758
445.07;	3.4740
445.34;	3.4719
445.61;	3.4697
445.88;	3.4673
446.14;	3.4647
446.41;	3.4619
446.68;	3.4590
446.95;	3.4560
447.21;	3.4527
447.48;	3.4493
447.75;	3.4457
448.02;	3.4420
448.28;	3.4380
448.55;	3.4340
448.82;	3.4297
449.09;	3.4253
449.35;	3.4207
449.62;	3.4160
449.89;	3.4111
450.16;	3.4060
450.42;	3.4008
450.69;	3.3954
450.96;	3.3899
451.23;	3.3842
451.49;	3.3783
451.76;	3.3723
452.03;	3.3661
452.29;	3.3598
452.56;	3.3533
452.83;	3.3467
453.10;	3.3399
453.36;	3.3330
453.63;	3.3259
453.90;	3.3186
454.17;	3.3112
454.43;	3.3037
454.70;	3.2960
454.97;	3.2882
455.24;	3.2802
455.50;	3.2721
455.77;	3.2639
456.04;	3.2555
456.31;	3.2469
456.57;	3.2383
456.84;	3.2295
457.11;	3.2205
457.38;	3.2115
457.64;	3.2022
457.91;	3.1929
458.18;	3.1834
458.45;	3.1738
458.71;	3.1641
458.98;	3.1542
459.25;	3.1443
459.52;	3.1342
459.78;	3.1239
460.05;	3.1136
460.32;	3.1031
460.59;	3.0925
460.85;	3.0818
461.12;	3.0710
461.39;	3.0601
461.66;	3.0490
461.92;	3.0379
462.19;	3.0266
462.46;	3.0153
462.73;	3.0038
462.99;	2.9922
463.26;	2.9805
463.53;	2.9687
463.80;	2.9569
464.06;	2.9449
464.33;	2.9328
464.60;	2.9206
464.87;	2.9084
465.13;	2.8960
465.40;	2.8836
465.67;	2.8710
465.94;	2.8584
466.20;	2.8457
466.47;	2.8329
466.74;	2.8200
467.01;	2.8071
467.27;	2.7940
467.54;	2.7809
467.81;	2.7677
468.08;	2.7545
468.34;	2.7411
468.61;	2.7277
468.88;	2.7142
469.15;	2.7007
469.41;	2.6871
469.68;	2.6734
469.95;	2.6597
470.21;	2.6459
470.48;	2.6321
470.75;	2.6181
471.02;	2.6042
471.28;	2.5902
471.55;	2.5761
471.82;	2.5620
472.09;	2.5478
472.35;	2.5336
472.62;	2.5193
472.89;	2.5050
473.16;	2.4907
473.42;	2.4763
473.69;	2.4619
473.96;	2.4474
474.23;	2.4329
474.49;	2.4184
474.76;	2.4038
475.03;	2.3892
475.30;	2.3746
475.56;	2.3600
475.83;	2.3453
476.10;	2.3306
476.37;	2.3159
476.63;	2.3011
476.90;	2.2863
477.17;	2.2716
477.44;	2.2568
477.70;	2.2420
477.97;	2.2271
478.24;	2.2123
478.51;	2.1975
478.77;	2.1826
479.04;	2.1677
479.31;	2.1529
479.58;	2.1380
479.84;	2.1231
480.11;	2.1083
480.38;	2.0934
480.65;	2.0785
480.91;	2.0637
481.18;	2.0488
481.45;	2.0339
481.72;	2.0191
481.98;	2.0043
482.25;	1.9894
482.52;	1.9746
482.79;	1.9598
483.05;	1.9450
483.32;	1.9303
483.59;	1.9155
483.86;	1.9008
484.12;	1.8861
484.39;	1.8714
484.66;	1.8567
484.93;	1.8421
485.19;	1.8274
485.46;	1.8128
485.73;	1.7983
486.00;	1.7837
486.26;	1.7692
486.53;	1.7548
486.80;	1.7403
487.07;	1.7259
487.33;	1.7115
487.60;	1.6972
487.87;	1.6829
488.13;	1.6686
488.40;	1.6544
488.67;	1.6402
488.94;	1.6261
489.20;	1.6120
489.47;	1.5979
489.74;	1.5839
490.01;	1.5699
490.27;	1.5560
490.54;	1.5421
490.81;	1.5283
491.08;	1.5146
491.34;	1.5008
491.61;	1.4872
491.88;	1.4735
492.15;	1.4600
492.41;	1.4464
492.68;	1.4330
492.95;	1.4196
493.22;	1.4062
493.48;	1.3929
493.75;	1.3797
494.02;	1.3665
494.29;	1.3534
494.55;	1.3404
494.82;	1.3274
495.09;	1.3144
495.36;	1.3016
495.62;	1.2887
495.89;	1.2760
496.16;	1.2633
496.43;	1.2507
496.69;	1.2381
496.96;	1.2257
497.23;	1.2132
497.50;	1.2009
497.76;	1.1886
498.03;	1.1764
498.30;	1.1642
498.57;	1.1521
498.83;	1.1401
499.10;	1.1282
499.37;	1.1163
499.64;	1.1045
499.90;	1.0928
500.17;	1.0811
500.44;	1.0695
500.71;	1.0580
500.97;	1.0466
501.24;	1.0352
501.51;	1.0239
501.78;	1.0127
502.04;	1.0016
502.31;	0.9905
502.58;	0.9795
502.85;	0.9686
503.11;	0.9577
503.38;	0.9469
503.65;	0.9363
503.92;	0.9256
504.18;	0.9151
504.45;	0.9046
504.72;	0.8942
504.99;	0.8839
505.25;	0.8737
505.52;	0.8635
505.79;	0.8534
506.05;	0.8434
506.32;	0.8335
506.59;	0.8236
506.86;	0.8138
507.12;	0.8041
507.39;	0.7945
507.66;	0.7850
507.93;	0.7755
508.19;	0.7661
508.46;	0.7568
508.73;	0.7475
509.00;	0.7384
509.26;	0.7293
509.53;	0.7203
509.80;	0.7114
510.07;	0.7025
510.33;	0.6937
510.60;	0.6850
510.87;	0.6764
511.14;	0.6679
511.40;	0.6594
511.67;	0.6510
511.94;	0.6427
512.21;	0.6344
512.47;	0.6263
512.74;	0.6182
513.01;	0.6102
513.28;	0.6022
513.54;	0.5944
513.81;	0.5866
514.08;	0.5789
514.35;	0.5712
514.61;	0.5637
514.88;	0.5562
515.15;	0.5487
515.42;	0.5414
515.68;	0.5341
515.95;	0.5269
516.22;	0.5198
516.49;	0.5127
516.75;	0.5058
517.02;	0.4988
517.29;	0.4920
517.56;	0.4852
517.82;	0.4785
518.09;	0.4719
518.36;	0.4654
518.63;	0.4589
518.89;	0.4525
519.16;	0.4461
519.43;	0.4398
519.70;	0.4336
519.96;	0.4275
520.23;	0.4214
520.50;	0.4154
520.77;	0.4094
521.03;	0.4036
521.30;	0.3978
521.57;	0.3920
521.84;	0.3863
522.10;	0.3807
522.37;	0.3752
522.64;	0.3697
522.91;	0.3643
523.17;	0.3589
523.44;	0.3536
523.71;	0.3484
523.97;	0.3432
524.24;	0.3381
524.51;	0.3331
524.78;	0.3281
525.04;	0.3232
525.31;	0.3183
525.58;	0.3135
525.85;	0.3088
526.11;	0.3041
526.38;	0.2995
526.65;	0.2949
526.92;	0.2904
527.18;	0.2859
527.45;	0.2815
527.72;	0.2772
527.99;	0.2729
528.25;	0.2687
528.52;	0.2645
528.79;	0.2604
529.06;	0.2563
529.32;	0.2523
529.59;	0.2483
529.86;	0.2444
530.13;	0.2406
530.39;	0.2368
530.66;	0.2330
530.93;	0.2293
531.20;	0.2257
531.46;	0.2220
531.73;	0.2185
532.00;	0.2150
532.27;	0.2115
532.53;	0.2081
532.80;	0.2048
533.07;	0.2014
533.34;	0.1982
533.60;	0.1950
533.87;	0.1918
534.14;	0.1887
534.41;	0.1856
534.67;	0.1825
534.94;	0.1795
535.21;	0.1766
535.48;	0.1737
535.74;	0.1708
536.01;	0.1680
536.28;	0.1652
536.55;	0.1624
536.81;	0.1597
537.08;	0.1571
537.35;	0.1545
537.62;	0.1519
537.88;	0.1493
538.15;	0.1468
538.42;	0.1444
538.69;	0.1419
538.95;	0.1395
539.22;	0.1372
539.49;	0.1349
539.76;	0.1326
540.02;	0.1303
540.29;	0.1281
540.56;	0.1260
540.83;	0.1238
541.09;	0.1217
541.36;	0.1196
541.63;	0.1176
541.89;	0.1156
542.16;	0.1136
542.43;	0.1117
542.70;	0.1098
542.96;	0.1079
543.23;	0.1060
543.50;	0.1042
543.77;	0.1024
544.03;	0.1007
544.30;	0.0989
544.57;	0.0972
544.84;	0.0956
545.10;	0.0939
545.37;	0.0923
545.64;	0.0907
545.91;	0.0892
546.17;	0.0876
546.44;	0.0861
546.71;	0.0847
546.98;	0.0832
547.24;	0.0818
547.51;	0.0804
547.78;	0.0790
548.05;	0.0776
548.31;	0.0763
548.58;	0.0750
548.85;	0.0737
549.12;	0.0725
549.38;	0.0712
549.65;	0.0700
549.92;	0.0688
550.19;	0.0677
550.45;	0.0665
550.72;	0.0654
550.99;	0.0643
551.26;	0.0632
551.52;	0.0621
551.79;	0.0611
552.06;	0.0601
552.33;	0.0591
552.59;	0.0581
552.86;	0.0571
553.13;	0.0562
553.40;	0.0552
553.66;	0.0543
553.93;	0.0534
554.20;	0.0526
554.47;	0.0517
554.73;	0.0509
555.00;	0.0500
555.27;	0.0492
555.54;	0.0484
555.80;	0.0477
556.07;	0.0469
556.34;	0.0462
556.61;	0.0454
556.87;	0.0447
557.14;	0.0440
557.41;	0.0433
557.68;	0.0427
557.94;	0.0420
558.21;	0.0414
558.48;	0.0407
558.75;	0.0401
559.01;	0.0395
559.28;	0.0389
559.55;	0.0384
559.81;	0.0378
560.08;	0.0373
560.35;	0.0367
560.62;	0.0362
560.88;	0.0357
561.15;	0.0352
561.42;	0.0347
561.69;	0.0342
561.95;	0.0338
562.22;	0.0333
562.49;	0.0329
562.76;	0.0324
563.02;	0.0320
563.29;	0.0316
563.56;	0.0312
563.83;	0.0308
564.09;	0.0304
564.36;	0.0300
564.63;	0.0297
564.90;	0.0293
565.16;	0.0290
565.43;	0.0286
565.70;	0.0283
565.97;	0.0280
566.23;	0.0277
566.50;	0.0274
566.77;	0.0271
567.04;	0.0268
567.30;	0.0265
567.57;	0.0262
567.84;	0.0260
568.11;	0.0257
568.37;	0.0255
568.64;	0.0252
568.91;	0.0250
569.18;	0.0248
569.44;	0.0245
569.71;	0.0243
569.98;	0.0241
570.25;	0.0239
570.51;	0.0237
570.78;	0.0235
571.05;	0.0233
571.32;	0.0232
571.58;	0.0230
571.85;	0.0228
572.12;	0.0227
572.39;	0.0225
572.65;	0.0224
572.92;	0.0222
573.19;	0.0221
573.46;	0.0220
573.72;	0.0218
573.99;	0.0217
574.26;	0.0216
574.53;	0.0215
574.79;	0.0214
575.06;	0.0213
575.33;	0.0212
575.60;	0.0211
575.86;	0.0210
576.13;	0.0209
576.40;	0.0208
576.67;	0.0207
576.93;	0.0207
577.20;	0.0206
577.47;	0.0205
577.73;	0.0205
578.00;	0.0204
578.27;	0.0204
578.54;	0.0203
578.80;	0.0203
579.07;	0.0202
579.34;	0.0202
579.61;	0.0202
579.87;	0.0201
580.14;	0.0201
580.41;	0.0201
580.68;	0.0200
580.94;	0.0200
581.21;	0.0200
581.48;	0.0200
581.75;	0.0200
582.01;	0.0200
582.28;	0.0200
582.55;	0.0200
582.82;	0.0200
583.08;	0.0200
583.35;	0.0200
583.62;	0.0200
583.89;	0.0200
584.15;	0.0200
584.42;	0.0200
584.69;	0.0200
584.96;	0.0200
585.22;	0.0201
585.49;	0.0201
585.76;	0.0201
586.03;	0.0201
586.29;	0.0202
586.56;	0.0202
586.83;	0.0202
587.10;	0.0203
587.36;	0.0203
587.63;	0.0203
587.90;	0.0204
588.17;	0.0204
588.43;	0.0205
588.70;	0.0205
588.97;	0.0206
589.24;	0.0206
589.50;	0.0207
589.77;	0.0207
590.04;	0.0208
590.31;	0.0208
590.57;	0.0209
590.84;	0.0209
591.11;	0.0210
591.38;	0.0211
591.64;	0.0211
591.91;	0.0212
592.18;	0.0213
592.45;	0.0213
592.71;	0.0214
592.98;	0.0215
593.25;	0.0215
593.52;	0.0216
593.78;	0.0217
594.05;	0.0217
594.32;	0.0218
594.59;	0.0219
594.85;	0.0220
595.12;	0.0221
595.39;	0.0221
595.65;	0.0222
595.92;	0.0223
596.19;	0.0224
596.46;	0.0225
596.72;	0.0225
596.99;	0.0226
597.26;	0.0227
597.53;	0.0228
597.79;	0.0229
598.06;	0.0230
598.33;	0.0231
598.60;	0.0231
598.86;	0.0232
599.13;	0.0233
599.40;	0.0234
599.67;	0.0235
599.93;	0.0236
600.20;	0.0237
600.47;	0.0238
600.74;	0.0239
601.00;	0.0240
601.27;	0.0241
601.54;	0.0242
601.81;	0.0243
602.07;	0.0244
602.34;	0.0245
602.61;	0.0246
602.88;	0.0247
603.14;	0.0248
603.41;	0.0249
603.68;	0.0250
603.95;	0.0251
604.21;	0.0252
604.48;	0.0253
604.75;	0.0254
605.02;	0.0255
605.28;	0.0256
605.55;	0.0257
605.82;	0.0258
606.09;	0.0259
606.35;	0.0260
606.62;	0.0261
606.89;	0.0262
607.16;	0.0263
607.42;	0.0264
607.69;	0.0265
607.96;	0.0266
608.23;	0.0267
608.49;	0.0268
608.76;	0.0269
609.03;	0.0271
609.30;	0.0272
609.56;	0.0273
609.83;	0.0274
610.10;	0.0275
610.37;	0.0276
610.63;	0.0277
610.90;	0.0278
611.17;	0.0279
611.44;	0.0280
611.70;	0.0281
611.97;	0.0283
612.24;	0.0284
612.51;	0.0285
612.77;	0.0286
613.04;	0.0287
613.31;	0.0288
613.57;	0.0289
613.84;	0.0290
614.11;	0.0291
614.38;	0.0293
614.64;	0.0294
614.91;	0.0295
615.18;	0.0296
615.45;	0.0297
615.71;	0.0298
615.98;	0.0299
616.25;	0.0300
616.52;	0.0302
616.78;	0.0303
617.05;	0.0304
617.32;	0.0305
617.59;	0.0306
617.85;	0.0307
618.12;	0.0308
618.39;	0.0309
618.66;	0.0311
618.92;	0.0312
619.19;	0.0313
619.46;	0.0314
619.73;	0.0315
619.99;	0.0316
620.26;	0.0317
620.53;	0.0319
620.80;	0.0320
621.06;	0.0321
621.33;	0.0322
621.60;	0.0323
621.87;	0.0324
622.13;	0.0325
622.40;	0.0326
622.67;	0.0328
622.94;	0.0329
623.20;	0.0330
623.47;	0.0331
623.74;	0.0332
624.01;	0.0333
624.27;	0.0334
624.54;	0.0335
624.81;	0.0336
625.08;	0.0338
625.34;	0.0339
625.61;	0.0340
625.88;	0.0341
626.15;	0.0342
626.41;	0.0343
626.68;	0.0344
626.95;	0.0345
627.22;	0.0346
627.48;	0.0348
627.75;	0.0349
628.02;	0.0350
628.29;	0.0351
628.55;	0.0352
628.82;	0.0353
629.09;	0.0354
629.36;	0.0355
629.62;	0.0356
629.89;	0.0357
630.16;	0.0358
630.43;	0.0359
630.69;	0.0361
630.96;	0.0362
631.23;	0.0363
631.49;	0.0364
631.76;	0.0365
632.03;	0.0366
632.30;	0.0367
632.56;	0.0368
632.83;	0.0369
633.10;	0.0370
633.37;	0.0371
633.63;	0.0372
633.90;	0.0373
634.17;	0.0374
634.44;	0.0375
634.70;	0.0376
634.97;	0.0377
635.24;	0.0378
635.51;	0.0380
635.77;	0.0381
636.04;	0.0382
636.31;	0.0383
636.58;	0.0384
636.84;	0.0385
637.11;	0.0386
637.38;	0.0387
637.65;	0.0388
637.91;	0.0389
638.18;	0.0390
638.45;	0.0391
638.72;	0.0392
638.98;	0.0393
639.25;	0.0394
639.52;	0.0395
639.79;	0.0395
640.05;	0.0396
640.32;	0.0397
640.59;	0.0398
640.86;	0.0399
641.12;	0.0400
641.39;	0.0401
641.66;	0.0402
641.93;	0.0403
642.19;	0.0404
642.46;	0.0405
642.73;	0.0406
643.00;	0.0407
643.26;	0.0408
643.53;	0.0409
643.80;	0.0410
644.07;	0.0410
644.33;	0.0411
644.60;	0.0412
644.87;	0.0413
645.14;	0.0414
645.40;	0.0415
645.67;	0.0416
645.94;	0.0417
646.21;	0.0418
646.47;	0.0418
646.74;	0.0419
647.01;	0.0420
647.28;	0.0421
647.54;	0.0422
647.81;	0.0423
648.08;	0.0423
648.35;	0.0424
648.61;	0.0425
648.88;	0.0426
649.15;	0.0427
649.41;	0.0428
649.68;	0.0428
649.95;	0.0429
650.22;	0.0430
650.48;	0.0431
650.75;	0.0432
651.02;	0.0432
651.29;	0.0433
651.55;	0.0434
651.82;	0.0435
652.09;	0.0435
652.36;	0.0436
652.62;	0.0437
652.89;	0.0438
653.16;	0.0438
653.43;	0.0439
653.69;	0.0440
653.96;	0.0440
654.23;	0.0441
654.50;	0.0442
654.76;	0.0443
655.03;	0.0443
655.30;	0.0444
655.57;	0.0445
655.83;	0.0445
656.10;	0.0446
656.37;	0.0447
656.64;	0.0447
656.90;	0.0448
657.17;	0.0449
657.44;	0.0449
657.71;	0.0450
657.97;	0.0450
658.24;	0.0451
658.51;	0.0452
658.78;	0.0452
659.04;	0.0453
659.31;	0.0453
659.58;	0.0454
659.85;	0.0455
660.11;	0.0455
660.38;	0.0456
660.65;	0.0456
660.92;	0.0457
661.18;	0.0457
661.45;	0.0458
661.72;	0.0458
661.99;	0.0459
662.25;	0.0459
662.52;	0.0460
662.79;	0.0460
663.06;	0.0461
663.32;	0.0461
663.59;	0.0462
663.86;	0.0462
664.13;	0.0463
664.39;	0.0463
664.66;	0.0464
664.93;	0.0464
665.20;	0.0465
665.46;	0.0465
665.73;	0.0466
666.00;	0.0466
666.27;	0.0466
666.53;	0.0467
666.80;	0.0467
667.07;	0.0468
667.33;	0.0468
667.60;	0.0468
667.87;	0.0469
668.14;	0.0469
668.40;	0.0469
668.67;	0.0470
668.94;	0.0470
669.21;	0.0470
669.47;	0.0471
669.74;	0.0471
670.01;	0.0471
670.28;	0.0472
670.54;	0.0472
670.81;	0.0472
671.08;	0.0473
671.35;	0.0473
671.61;	0.0473
671.88;	0.0473
672.15;	0.0474
672.42;	0.0474
672.68;	0.0474
672.95;	0.0474
673.22;	0.0475
673.49;	0.0475
673.75;	0.0475
674.02;	0.0475
674.29;	0.0475
674.56;	0.0476
674.82;	0.0476
675.09;	0.0476
675.36;	0.0476
675.63;	0.0476
675.89;	0.0476
676.16;	0.0477
676.43;	0.0477
676.70;	0.0477
676.96;	0.0477
677.23;	0.0477
677.50;	0.0477
677.77;	0.0477
678.03;	0.0477
678.30;	0.0477
678.57;	0.0477
678.84;	0.0478
679.10;	0.0478
679.37;	0.0478
679.64;	0.0478
679.91;	0.0478
680.17;	0.0478
680.44;	0.0478
680.71;	0.0478
680.98;	0.0478
681.24;	0.0478
681.51;	0.0478
681.78;	0.0478
682.05;	0.0478
682.31;	0.0478
682.58;	0.0478
682.85;	0.0478
683.12;	0.0478
683.38;	0.0477
683.65;	0.0477
683.92;	0.0477
684.19;	0.0477
684.45;	0.0477
684.72;	0.0477
684.99;	0.0477
685.25;	0.0477
685.52;	0.0477
685.79;	0.0477
686.06;	0.0476
686.32;	0.0476
686.59;	0.0476
686.86;	0.0476
687.13;	0.0476
687.39;	0.0476
687.66;	0.0475
687.93;	0.0475
688.20;	0.0475
688.46;	0.0475
688.73;	0.0475
689.00;	0.0474
689.27;	0.0474
689.53;	0.0474
689.80;	0.0474
690.07;	0.0473
690.34;	0.0473
690.60;	0.0473
690.87;	0.0473
691.14;	0.0472
691.41;	0.0472
691.67;	0.0472
691.94;	0.0471
692.21;	0.0471
692.48;	0.0471
692.74;	0.0471
693.01;	0.0470
693.28;	0.0470
693.55;	0.0469
693.81;	0.0469
694.08;	0.0469
694.35;	0.0468
694.62;	0.0468
694.88;	0.0468
695.15;	0.0467
695.42;	0.0467
695.69;	0.0466
695.95;	0.0466
696.22;	0.0466
696.49;	0.0465
696.76;	0.0465
697.02;	0.0464
697.29;	0.0464
697.56;	0.0463
697.83;	0.0463
698.09;	0.0462
698.36;	0.0462
698.63;	0.0462
698.90;	0.0461
699.16;	0.0461
699.43;	0.0460
699.70;	0.0460
699.97;	0.0459
700.23;	0.0459
700.50;	0.0458
700.77;	0.0457
701.04;	0.0457
701.30;	0.0456
701.57;	0.0456
701.84;	0.0455
702.11;	0.0455
702.37;	0.0454
702.64;	0.0454
702.91;	0.0453
703.17;	0.0452
703.44;	0.0452
703.71;	0.0451
703.98;	0.0451
704.24;	0.0450
704.51;	0.0449
704.78;	0.0449
705.05;	0.0448
705.31;	0.0447
705.58;	0.0447
705.85;	0.0446
706.12;	0.0445
706.38;	0.0445
706.65;	0.0444
706.92;	0.0443
707.19;	0.0443
707.45;	0.0442
707.72;	0.0441
707.99;	0.0441
708.26;	0.0440
708.52;	0.0439
708.79;	0.0438
709.06;	0.0438
709.33;	0.0437
709.59;	0.0436
709.86;	0.0435
710.13;	0.0435
710.40;	0.0434
710.66;	0.0433
710.93;	0.0432
711.20;	0.0432
711.47;	0.0431
711.73;	0.0430
712.00;	0.0429
712.27;	0.0428
712.54;	0.0428
712.80;	0.0427
713.07;	0.0426
713.34;	0.0425
713.61;	0.0424
713.87;	0.0424
714.14;	0.0423
714.41;	0.0422
714.68;	0.0421
714.94;	0.0420
715.21;	0.0419
715.48;	0.0419
715.75;	0.0418
716.01;	0.0417
716.28;	0.0416
716.55;	0.0415
716.82;	0.0414
717.08;	0.0413
717.35;	0.0412
717.62;	0.0412
717.89;	0.0411
718.15;	0.0410
718.42;	0.0409
718.69;	0.0408
718.96;	0.0407
719.22;	0.0406
719.49;	0.0405
719.76;	0.0404
720.03;	0.0403
720.29;	0.0402
720.56;	0.0401
720.83;	0.0400
721.09;	0.0399
721.36;	0.0398
721.63;	0.0398
721.90;	0.0397
722.16;	0.0396
722.43;	0.0395
722.70;	0.0394
722.97;	0.0393
723.23;	0.0392
723.50;	0.0391
723.77;	0.0390
724.04;	0.0389
724.30;	0.0388
724.57;	0.0387
724.84;	0.0386
725.11;	0.0385
725.37;	0.0384
725.64;	0.0383
725.91;	0.0382
726.18;	0.0381
726.44;	0.0380
726.71;	0.0379
726.98;	0.0378
727.25;	0.0377
727.51;	0.0375
727.78;	0.0374
728.05;	0.0373
728.32;	0.0372
728.58;	0.0371
728.85;	0.0370
729.12;	0.0369
729.39;	0.0368
729.65;	0.0367
729.92;	0.0366
730.19;	0.0365
730.46;	0.0364
730.72;	0.0363
730.99;	0.0362
731.26;	0.0361
731.53;	0.0360
731.79;	0.0358
732.06;	0.0357
732.33;	0.0356
732.60;	0.0355
732.86;	0.0354
733.13;	0.0353
733.40;	0.0352
733.67;	0.0351
733.93;	0.0350
734.20;	0.0349
734.47;	0.0347
734.74;	0.0346
735.00;	0.0345
735.27;	0.0344
735.54;	0.0343
735.81;	0.0342
736.07;	0.0341
736.34;	0.0340
736.61;	0.0339
736.88;	0.0337
737.14;	0.0336
737.41;	0.0335
737.68;	0.0334
737.95;	0.0333
738.21;	0.0332
738.48;	0.0331
738.75;	0.0330
739.01;	0.0328
739.28;	0.0327
739.55;	0.0326
739.82;	0.0325
740.08;	0.0324
740.35;	0.0323
740.62;	0.0322
740.89;	0.0320
741.15;	0.0319
741.42;	0.0318
741.69;	0.0317
741.96;	0.0316
742.22;	0.0315
742.49;	0.0314
742.76;	0.0312
743.03;	0.0311
743.29;	0.0310
743.56;	0.0309
743.83;	0.0308
744.10;	0.0307
744.36;	0.0306
744.63;	0.0304
744.90;	0.0303
745.17;	0.0302
745.43;	0.0301
745.70;	0.0300
745.97;	0.0299
746.24;	0.0297
746.50;	0.0296
746.77;	0.0295
747.04;	0.0294
747.31;	0.0293
747.57;	0.0292
747.84;	0.0290
748.11;	0.0289
748.38;	0.0288
748.64;	0.0287
748.91;	0.0286
749.18;	0.0285
749.45;	0.0284
749.71;	0.0282
749.98;	0.0281
750.25;	0.0280
750.52;	0.0279
750.78;	0.0278
751.05;	0.0277
751.32;	0.0275
751.59;	0.0274
751.85;	0.0273
752.12;	0.0272
752.39;	0.0271
752.66;	0.0270
752.92;	0.0269
753.19;	0.0267
753.46;	0.0266
753.73;	0.0265
753.99;	0.0264
754.26;	0.0263
754.53;	0.0262
754.80;	0.0260
755.06;	0.0259
755.33;	0.0258
755.60;	0.0257
755.87;	0.0256
756.13;	0.0255
756.40;	0.0254
756.67;	0.0253
756.93;	0.0251
757.20;	0.0250
757.47;	0.0249
757.74;	0.0248
758.00;	0.0247
758.27;	0.0246
758.54;	0.0245
758.81;	0.0243
759.07;	0.0242
759.34;	0.0241
759.61;	0.0240
759.88;	0.0239
760.14;	0.0238
760.41;	0.0237
760.68;	0.0236
760.95;	0.0234
761.21;	0.0233
761.48;	0.0232
761.75;	0.0231
762.02;	0.0230
762.28;	0.0229
762.55;	0.0228
762.82;	0.0227
763.09;	0.0226
763.35;	0.0224
763.62;	0.0223
763.89;	0.0222
764.16;	0.0221
764.42;	0.0220
764.69;	0.0219
764.96;	0.0218
765.23;	0.0217
765.49;	0.0216
765.76;	0.0215
766.03;	0.0214
766.30;	0.0212
766.56;	0.0211
766.83;	0.0210
767.10;	0.0209
767.37;	0.0208
767.63;	0.0207
767.90;	0.0206
768.17;	0.0205
768.44;	0.0204
768.70;	0.0203
768.97;	0.0202
769.24;	0.0201
769.51;	0.0200
769.77;	0.0199
770.04;	0.0198
770.31;	0.0197
770.58;	0.0195
770.84;	0.0194
771.11;	0.0193
771.38;	0.0192
771.65;	0.0191
771.91;	0.0190
772.18;	0.0189
772.45;	0.0188
772.72;	0.0187
772.98;	0.0186
773.25;	0.0185
773.52;	0.0184
773.79;	0.0183
774.05;	0.0182
774.32;	0.0181
774.59;	0.0180
774.85;	0.0179
775.12;	0.0178
775.39;	0.0177
775.66;	0.0176
775.92;	0.0175
776.19;	0.0174
776.46;	0.0173
776.73;	0.0172
776.99;	0.0171
777.26;	0.0170
777.53;	0.0169
777.80;	0.0168
778.06;	0.0167
778.33;	0.0166
778.60;	0.0165
778.87;	0.0164
779.13;	0.0163
779.40;	0.0162
779.67;	0.0162
779.94;	0.0161
780.20;	0.0160
780.47;	0.0159
780.74;	0.0158
781.01;	0.0157
781.27;	0.0156
781.54;	0.0155
781.81;	0.0154
782.08;	0.0153
782.34;	0.0152
782.61;	0.0151
782.88;	0.0150
783.15;	0.0149
783.41;	0.0149
783.68;	0.0148
783.95;	0.0147
784.22;	0.0146
784.48;	0.0145
784.75;	0.0144
785.02;	0.0143
785.29;	0.0142
785.55;	0.0141
785.82;	0.0141
786.09;	0.0140
786.36;	0.0139
786.62;	0.0138
786.89;	0.0137
787.16;	0.0136
787.43;	0.0135
787.69;	0.0134
787.96;	0.0134
788.23;	0.0133
788.50;	0.0132
788.76;	0.0131
789.03;	0.0130
789.30;	0.0129
789.57;	0.0129
789.83;	0.0128
790.10;	0.0127
790.37;	0.0126
790.64;	0.0125
790.90;	0.0124
791.17;	0.0124
791.44;	0.0123
791.71;	0.0122
791.97;	0.0121
792.24;	0.0120
792.51;	0.0120
792.77;	0.0119
793.04;	0.0118
793.31;	0.0117
793.58;	0.0116
793.84;	0.0116
794.11;	0.0115
794.38;	0.0114
794.65;	0.0113
794.91;	0.0113
795.18;	0.0112
795.45;	0.0111
795.72;	0.0110
795.98;	0.0110
796.25;	0.0109
796.52;	0.0108
796.79;	0.0107
797.05;	0.0107
797.32;	0.0106
797.59;	0.0105
797.86;	0.0104
798.12;	0.0104
798.39;	0.0103
798.66;	0.0102
798.93;	0.0102
799.19;	0.0101
799.46;	0.0100
799.73;	0.0099
800.00;	0.0099
800.26;	0.0098
800.53;	0.0097
800.80;	0.0097
801.07;	0.0096
801.33;	0.0095
801.60;	0.0095
801.87;	0.0094
802.14;	0.0093
802.40;	0.0093
802.67;	0.0092
802.94;	0.0091
803.21;	0.0091
803.47;	0.0090
803.74;	0.0089
804.01;	0.0089
804.28;	0.0088
804.54;	0.0087
804.81;	0.0087
805.08;	0.0086
805.35;	0.0085
805.61;	0.0085
805.88;	0.0084
806.15;	0.0083
806.42;	0.0083
806.68;	0.0082
806.95;	0.0082
807.22;	0.0081
807.49;	0.0080
807.75;	0.0080
808.02;	0.0079
808.29;	0.0079
808.56;	0.0078
808.82;	0.0077
809.09;	0.0077
809.36;	0.0076
809.63;	0.0076
809.89;	0.0075
810.16;	0.0075
810.43;	0.0074
810.69;	0.0073
810.96;	0.0073
811.23;	0.0072
811.50;	0.0072
811.76;	0.0071
812.03;	0.0071
812.30;	0.0070
812.57;	0.0069
812.83;	0.0069
813.10;	0.0068
813.37;	0.0068
813.64;	0.0067
813.90;	0.0067
814.17;	0.0066
814.44;	0.0066
814.71;	0.0065
814.97;	0.0065
815.24;	0.0064
815.51;	0.0064
815.78;	0.0063
816.04;	0.0063
816.31;	0.0062
816.58;	0.0062
816.85;	0.0061
817.11;	0.0061
817.38;	0.0060
817.65;	0.0060
817.92;	0.0059
818.18;	0.0059
818.45;	0.0058
818.72;	0.0058
818.99;	0.0057
819.25;	0.0057
819.52;	0.0056
819.79;	0.0056
820.06;	0.0055
820.32;	0.0055
820.59;	0.0055
820.86;	0.0054
821.13;	0.0054
821.39;	0.0053
821.66;	0.0053
821.93;	0.0052
822.20;	0.0052
822.46;	0.0051
822.73;	0.0051
823.00;	0.0051
823.27;	0.0050
823.53;	0.0050
823.80;	0.0049
824.07;	0.0049
824.34;	0.0048
824.60;	0.0048
824.87;	0.0048
825.14;	0.0047
825.41;	0.0047
825.67;	0.0046
825.94;	0.0046
826.21;	0.0046
826.48;	0.0045
826.74;	0.0045
827.01;	0.0044
827.28;	0.0044
827.55;	0.0044
827.81;	0.0043
828.08;	0.0043
828.35;	0.0043
828.61;	0.0042
828.88;	0.0042
829.15;	0.0041
829.42;	0.0041
829.68;	0.0041
829.95;	0.0040
830.22;	0.0040
830.49;	0.0040
830.75;	0.0039
831.02;	0.0039
831.29;	0.0039
831.56;	0.0038
831.82;	0.0038
832.09;	0.0038
832.36;	0.0037
832.63;	0.0037
832.89;	0.0037
833.16;	0.0036
833.43;	0.0036
833.70;	0.0036
833.96;	0.0035
834.23;	0.0035
834.50;	0.0035
834.77;	0.0034
835.03;	0.0034
835.30;	0.0034
835.57;	0.0033
835.84;	0.0033
836.10;	0.0033
836.37;	0.0032
836.64;	0.0032
836.91;	0.0032
837.17;	0.0032
837.44;	0.0031
837.71;	0.0031
837.98;	0.0031
838.24;	0.0030
838.51;	0.0030
838.78;	0.0030
839.05;	0.0030
839.31;	0.0029
839.58;	0.0029
839.85;	0.0029
840.12;	0.0028
840.38;	0.0028
840.65;	0.0028
840.92;	0.0028
841.19;	0.0027
841.45;	0.0027
841.72;	0.0027
841.99;	0.0027
842.26;	0.0026
842.52;	0.0026
842.79;	0.0026
843.06;	0.0026
843.33;	0.0025
843.59;	0.0025
843.86;	0.0025
844.13;	0.0025
844.40;	0.0024
844.66;	0.0024
844.93;	0.0024
845.20;	0.0024
845.47;	0.0023
845.73;	0.0023
846.00;	0.0023
