wavelength, nm;	absorption
384.00;	1.0881
384.26;	1.0995
384.52;	1.1110
384.78;	1.1225
385.04;	1.1340
385.30;	1.1457
385.56;	1.1574
385.82;	1.1692
386.08;	1.1810
386.34;	1.1929
386.60;	1.2049
386.86;	1.2169
387.11;	1.2290
387.37;	1.2412
387.63;	1.2534
387.89;	1.2657
388.15;	1.2780
388.41;	1.2904
388.67;	1.3029
388.93;	1.3154
389.19;	1.3279
389.45;	1.3406
389.71;	1.3533
389.97;	1.3660
390.23;	1.3788
390.49;	1.3917
390.75;	1.4046
391.01;	1.4176
391.27;	1.4306
391.53;	1.4437
391.79;	1.4568
392.05;	1.4699
392.31;	1.4832
392.57;	1.4964
392.82;	1.5098
393.08;	1.5231
393.34;	1.5365
393.60;	1.5500
393.86;	1.5635
394.12;	1.5771
394.38;	1.5907
394.64;	1.6043
394.90;	1.6180
395.16;	1.6317
395.42;	1.6454
395.68;	1.6592
395.94;	1.6731
396.20;	1.6869
396.46;	1.7008
396.72;	1.7148
396.98;	1.7288
397.24;	1.7428
397.50;	1.7568
397.76;	1.7709
398.02;	1.7850
398.28;	1.7991
398.53;	1.8133
398.79;	1.8274
399.05;	1.8416
399.31;	1.8559
399.57;	1.8701
399.83;	1.8844
400.09;	1.8987
400.35;	1.9130
400.61;	1.9273
400.87;	1.9417
401.13;	1.9560
401.39;	1.9704
401.65;	1.9848
401.91;	1.9992
402.17;	2.0136
402.43;	2.0280
402.69;	2.0425
402.95;	2.0569
403.21;	2.0713
403.47;	2.0858
403.73;	2.1002
403.99;	2.1147
404.24;	2.1291
404.50;	2.1436
404.76;	2.1580
405.02;	2.1725
405.28;	2.1869
405.54;	2.2013
405.80;	2.2157
406.06;	2.2302
406.32;	2.2446
406.58;	2.2589
406.84;	2.2733
407.10;	2.2877
407.36;	2.3020
407.62;	2.3163
407.88;	2.3306
408.14;	2.3449
408.40;	2.3592
408.66;	2.3734
408.92;	2.3876
409.18;	2.4018
409.44;	2.4160
409.70;	2.4301
409.96;	2.4442
410.21;	2.4583
410.47;	2.4723
410.73;	2.4863
410.99;	2.5002
411.25;	2.5142
411.51;	2.5280
411.77;	2.5419
412.03;	2.5556
412.29;	2.5694
412.55;	2.5831
412.81;	2.5967
413.07;	2.6103
413.33;	2.6239
413.59;	2.6374
413.85;	2.6508
414.11;	2.6642
414.37;	2.6775
414.63;	2.6908
414.89;	2.7040
415.15;	2.7172
415.41;	2.7302
415.67;	2.7433
415.92;	2.7562
416.18;	2.7691
416.44;	2.7819
416.70;	2.7947
416.96;	2.8073
417.22;	2.8199
417.48;	2.8324
417.74;	2.8449
418.00;	2.8573
418.26;	2.8695
418.52;	2.8817
418.78;	2.8939
419.04;	2.9059
419.30;	2.9178
419.56;	2.9297
419.82;	2.9415
420.08;	2.9532
420.34;	2.9648
420.60;	2.9763
420.86;	2.9877
421.12;	2.9990
421.38;	3.0102
421.63;	3.0213
421.89;	3.0323
422.15;	3.0432
422.41;	3.0540
422.67;	3.0647
422.93;	3.0753
423.19;	3.0858
423.45;	3.0962
423.71;	3.1064
423.97;	3.1166
424.23;	3.1266
424.49;	3.1366
424.75;	3.1464
425.01;	3.1561
425.27;	3.1656
425.53;	3.1751
425.79;	3.1844
426.05;	3.1937
426.31;	3.2028
426.57;	3.2117
426.83;	3.2206
427.09;	3.2293
427.35;	3.2379
427.60;	3.2464
427.86;	3.2547
428.12;	3.2629
428.38;	3.2710
428.64;	3.2789
428.90;	3.2867
429.16;	3.2944
429.42;	3.3019
429.68;	3.3093
429.94;	3.3166
430.20;	3.3237
430.46;	3.3307
430.72;	3.3375
430.98;	3.3442
431.24;	3.3508
431.50;	3.3572
431.76;	3.3634
432.02;	3.3696
432.28;	3.3755
432.54;	3.3814
432.80;	3.3870
433.06;	3.3926
433.31;	3.3980
433.57;	3.4032
433.83;	3.4083
434.09;	3.4132
434.35;	3.4180
434.61;	3.4226
434.87;	3.4271
435.13;	3.4314
435.39;	3.4355
435.65;	3.4395
435.91;	3.4434
436.17;	3.4471
436.43;	3.4506
436.69;	3.4540
436.95;	3.4572
437.21;	3.4603
437.47;	3.4632
437.73;	3.4659
437.99;	3.4685
438.25;	3.4709
438.51;	3.4732
438.77;	3.4753
439.02;	3.4772
439.28;	3.4790
439.54;	3.4806
439.80;	3.4821
440.06;	3.4834
440.32;	3.4845
440.58;	3.4855
440.84;	3.4863
441.10;	3.4869
441.36;	3.4874
441.62;	3.4877
441.88;	3.4879
442.14;	3.4879
442.40;	3.4877
442.66;	3.4874
442.92;	3.4869
443.18;	3.4862
443.44;	3.4854
443.70;	3.4844
443.96;	3.4833
444.22;	3.4820
444.48;	3.4805
444.73;	3.4789
444.99;	3.4771
445.25;	3.4752
445.51;	3.4730
445.77;	3.4708
446.03;	3.4683
446.29;	3.4657
446.55;	3.4630
446.81;	3.4601
447.07;	3.4570
447.33;	3.4538
447.59;	3.4504
447.85;	3.4469
448.11;	3.4432
448.37;	3.4393
448.63;	3.4353
448.89;	3.4311
449.15;	3.4268
449.41;	3.4223
449.67;	3.4177
449.93;	3.4129
450.19;	3.4080
450.45;	3.4029
450.70;	3.3976
450.96;	3.3922
451.22;	3.3867
451.48;	3.3810
451.74;	3.3752
452.00;	3.3692
452.26;	3.3631
452.52;	3.3568
452.78;	3.3504
453.04;	3.3438
453.30;	3.3371
453.56;	3.3303
453.82;	3.3233
454.08;	3.3162
454.34;	3.3089
454.60;	3.3015
454.86;	3.2939
455.12;	3.2863
455.38;	3.2784
455.64;	3.2705
455.90;	3.2624
456.16;	3.2542
456.41;	3.2459
456.67;	3.2374
456.93;	3.2288
457.19;	3.2201
457.45;	3.2112
457.71;	3.2022
457.97;	3.1931
458.23;	3.1839
458.49;	3.1746
458.75;	3.1651
459.01;	3.1555
459.27;	3.1458
459.53;	3.1360
459.79;	3.1260
460.05;	3.1160
460.31;	3.1058
460.57;	3.0956
460.83;	3.0852
461.09;	3.0747
461.35;	3.0641
461.61;	3.0534
461.87;	3.0426
462.12;	3.0317
462.38;	3.0207
462.64;	3.0095
462.90;	2.9983
463.16;	2.9870
463.42;	2.9756
463.68;	2.9641
463.94;	2.9525
464.20;	2.9408
464.46;	2.9291
464.72;	2.9172
464.98;	2.9052
465.24;	2.8932
465.50;	2.8811
465.76;	2.8689
466.02;	2.8566
466.28;	2.8442
466.54;	2.8318
466.80;	2.8192
467.06;	2.8066
467.32;	2.7940
467.58;	2.7812
467.84;	2.7684
468.09;	2.7555
468.35;	2.7426
468.61;	2.7296
468.87;	2.7165
469.13;	2.7033
469.39;	2.6901
469.65;	2.6768
469.91;	2.6635
470.17;	2.6501
470.43;	2.6367
470.69;	2.6232
470.95;	2.6096
471.21;	2.5960
471.47;	2.5824
471.73;	2.5687
471.99;	2.5550
472.25;	2.5412
472.51;	2.5273
472.77;	2.5135
473.03;	2.4996
473.29;	2.4856
473.55;	2.4716
473.80;	2.4576
474.06;	2.4435
474.32;	2.4294
474.58;	2.4153
474.84;	2.4012
475.10;	2.3870
475.36;	2.3728
475.62;	2.3585
475.88;	2.3443
476.14;	2.3300
476.40;	2.3157
476.66;	2.3014
476.92;	2.2870
477.18;	2.2727
477.44;	2.2583
477.70;	2.2439
477.96;	2.2295
478.22;	2.2151
478.48;	2.2007
478.74;	2.1863
479.00;	2.1719
479.26;	2.1574
479.51;	2.1430
479.77;	2.1285
480.03;	2.1141
480.29;	2.0997
480.55;	2.0852
480.81;	2.0708
481.07;	2.0563
481.33;	2.0419
481.59;	2.0275
481.85;	2.0131
482.11;	1.9987
482.37;	1.9843
482.63;	1.9699
482.89;	1.9555
483.15;	1.9412
483.41;	1.9268
483.67;	1.9125
483.93;	1.8982
484.19;	1.8839
484.45;	1.8697
484.71;	1.8554
484.97;	1.8412
485.22;	1.8270
485.48;	1.8128
485.74;	1.7987
486.00;	1.7846
486.26;	1.7705
486.52;	1.7564
486.78;	1.7424
487.04;	1.7284
487.30;	1.7144
487.56;	1.7005
487.82;	1.6866
488.08;	1.6728
488.34;	1.6589
488.60;	1.6452
488.86;	1.6314
489.12;	1.6177
489.38;	1.6040
489.64;	1.5904
489.90;	1.5768
490.16;	1.5633
490.42;	1.5498
490.68;	1.5364
490.94;	1.5230
491.19;	1.5096
491.45;	1.4963
491.71;	1.4830
491.97;	1.4698
492.23;	1.4567
492.49;	1.4436
492.75;	1.4305
493.01;	1.4175
493.27;	1.4045
493.53;	1.3916
493.79;	1.3788
494.05;	1.3660
494.31;	1.3533
494.57;	1.3406
494.83;	1.3280
495.09;	1.3154
495.35;	1.3029
495.61;	1.2905
495.87;	1.2781
496.13;	1.2658
496.39;	1.2535
496.65;	1.2413
496.90;	1.2292
497.16;	1.2171
497.42;	1.2051
497.68;	1.1931
497.94;	1.1812
498.20;	1.1694
498.46;	1.1576
498.72;	1.1460
498.98;	1.1343
499.24;	1.1228
499.50;	1.1113
499.76;	1.0998
500.02;	1.0885
500.28;	1.0772
500.54;	1.0660
500.80;	1.0548
501.06;	1.0437
501.32;	1.0327
501.58;	1.0218
501.84;	1.0109
502.10;	1.0001
502.36;	0.9893
502.61;	0.9787
502.87;	0.9681
503.13;	0.9575
503.39;	0.9471
503.65;	0.9367
503.91;	0.9264
504.17;	0.9161
504.43;	0.9060
504.69;	0.8959
504.95;	0.8858
505.21;	0.8759
505.47;	0.8660
505.73;	0.8562
505.99;	0.8464
506.25;	0.8368
506.51;	0.8272
506.77;	0.8177
507.03;	0.8082
507.29;	0.7988
507.55;	0.7895
507.81;	0.7803
508.07;	0.7711
508.33;	0.7621
508.58;	0.7531
508.84;	0.7441
509.10;	0.7352
509.36;	0.7265
509.62;	0.7177
509.88;	0.7091
510.14;	0.7005
510.40;	0.6920
510.66;	0.6836
510.92;	0.6752
511.18;	0.6669
511.44;	0.6587
511.70;	0.6506
511.96;	0.6425
512.22;	0.6345
512.48;	0.6266
512.74;	0.6187
513.00;	0.6109
513.26;	0.6032
513.52;	0.5956
513.78;	0.5880
514.04;	0.5805
514.29;	0.5730
514.55;	0.5657
514.81;	0.5584
515.07;	0.5512
515.33;	0.5440
515.59;	0.5369
515.85;	0.5299
516.11;	0.5229
516.37;	0.5161
516.63;	0.5093
516.89;	0.5025
517.15;	0.4958
517.41;	0.4892
517.67;	0.4827
517.93;	0.4762
518.19;	0.4698
518.45;	0.4634
518.71;	0.4572
518.97;	0.4510
519.23;	0.4448
519.49;	0.4387
519.75;	0.4327
520.00;	0.4267
520.26;	0.4209
520.52;	0.4150
520.78;	0.4093
521.04;	0.4036
521.30;	0.3979
521.56;	0.3923
521.82;	0.3868
522.08;	0.3814
522.34;	0.3760
522.60;	0.3706
522.86;	0.3654
523.12;	0.3602
523.38;	0.3550
523.64;	0.3499
523.90;	0.3449
524.16;	0.3399
524.42;	0.3350
524.68;	0.3301
524.94;	0.3253
525.20;	0.3206
525.46;	0.3159
525.71;	0.3112
525.97;	0.3067
526.23;	0.3021
526.49;	0.2977
526.75;	0.2933
527.01;	0.2889
527.27;	0.2846
527.53;	0.2803
527.79;	0.2761
528.05;	0.2720
528.31;	0.2679
528.57;	0.2638
528.83;	0.2598
529.09;	0.2559
529.35;	0.2520
529.61;	0.2482
529.87;	0.2444
530.13;	0.2406
530.39;	0.2369
530.65;	0.2333
530.91;	0.2297
531.17;	0.2261
531.43;	0.2226
531.68;	0.2191
531.94;	0.2157
532.20;	0.2124
532.46;	0.2090
532.72;	0.2058
532.98;	0.2025
533.24;	0.1993
533.50;	0.1962
533.76;	0.1931
534.02;	0.1900
534.28;	0.1870
534.54;	0.1840
534.80;	0.1811
535.06;	0.1782
535.32;	0.1754
535.58;	0.1725
535.84;	0.1698
536.10;	0.1670
536.36;	0.1644
536.62;	0.1617
536.88;	0.1591
537.14;	0.1565
537.39;	0.1540
537.65;	0.1515
537.91;	0.1490
538.17;	0.1466
538.43;	0.1442
538.69;	0.1418
538.95;	0.1395
539.21;	0.1372
539.47;	0.1349
539.73;	0.1327
539.99;	0.1305
540.25;	0.1284
540.51;	0.1263
540.77;	0.1242
541.03;	0.1221
541.29;	0.1201
541.55;	0.1181
541.81;	0.1162
542.07;	0.1142
542.33;	0.1123
542.59;	0.1105
542.85;	0.1086
543.10;	0.1068
543.36;	0.1050
543.62;	0.1033
543.88;	0.1016
544.14;	0.0999
544.40;	0.0982
544.66;	0.0965
544.92;	0.0949
545.18;	0.0933
545.44;	0.0918
545.70;	0.0902
545.96;	0.0887
546.22;	0.0873
546.48;	0.0858
546.74;	0.0844
547.00;	0.0829
547.26;	0.0816
547.52;	0.0802
547.78;	0.0789
548.04;	0.0775
548.30;	0.0762
548.56;	0.0750
548.82;	0.0737
549.07;	0.0725
549.33;	0.0713
549.59;	0.0701
549.85;	0.0689
550.11;	0.0678
550.37;	0.0667
550.63;	0.0656
550.89;	0.0645
551.15;	0.0634
551.41;	0.0624
551.67;	0.0614
551.93;	0.0604
552.19;	0.0594
552.45;	0.0584
552.71;	0.0575
552.97;	0.0565
553.23;	0.0556
553.49;	0.0547
553.75;	0.0538
554.01;	0.0530
554.27;	0.0521
554.53;	0.0513
554.78;	0.0505
555.04;	0.0497
555.30;	0.0489
555.56;	0.0481
555.82;	0.0474
556.08;	0.0466
556.34;	0.0459
556.60;	0.0452
556.86;	0.0445
557.12;	0.0438
557.38;	0.0432
557.64;	0.0425
557.90;	0.0419
558.16;	0.0412
558.42;	0.0406
558.68;	0.0400
558.94;	0.0394
559.20;	0.0389
559.46;	0.0383
559.72;	0.0378
559.98;	0.0372
560.24;	0.0367
560.49;	0.0362
560.75;	0.0357
561.01;	0.0352
561.27;	0.0347
561.53;	0.0342
561.79;	0.0338
562.05;	0.0333
562.31;	0.0329
562.57;	0.0324
562.83;	0.0320
563.09;	0.0316
563.35;	0.0312
563.61;	0.0308
563.87;	0.0304
564.13;	0.0300
564.39;	0.0297
564.65;	0.0293
564.91;	0.0290
565.17;	0.0286
565.43;	0.0283
565.69;	0.0280
565.95;	0.0277
566.20;	0.0274
566.46;	0.0271
566.72;	0.0268
566.98;	0.0265
567.24;	0.0262
567.50;	0.0260
567.76;	0.0257
568.02;	0.0254
568.28;	0.0252
568.54;	0.0250
568.80;	0.0247
569.06;	0.0245
569.32;	0.0243
569.58;	0.0241
569.84;	0.0239
570.10;	0.0237
570.36;	0.0235
570.62;	0.0233
570.88;	0.0231
571.14;	0.0229
571.40;	0.0227
571.66;	0.0226
571.92;	0.0224
572.17;	0.0223
572.43;	0.0221
572.69;	0.0220
572.95;	0.0218
573.21;	0.0217
573.47;	0.0216
573.73;	0.0214
573.99;	0.0213
574.25;	0.0212
574.51;	0.0211
574.77;	0.0210
575.03;	0.0209
575.29;	0.0208
575.55;	0.0207
575.81;	0.0206
576.07;	0.0205
576.33;	0.0204
576.59;	0.0203
576.85;	0.0203
577.11;	0.0202
577.37;	0.0201
577.63;	0.0201
577.88;	0.0200
578.14;	0.0199
578.40;	0.0199
578.66;	0.0198
578.92;	0.0198
579.18;	0.0198
579.44;	0.0197
579.70;	0.0197
579.96;	0.0196
580.22;	0.0196
580.48;	0.0196
580.74;	0.0196
581.00;	0.0195
581.26;	0.0195
581.52;	0.0195
581.78;	0.0195
582.04;	0.0195
582.30;	0.0195
582.56;	0.0195
582.82;	0.0195
583.08;	0.0195
583.34;	0.0195
583.59;	0.0195
583.85;	0.0195
584.11;	0.0195
584.37;	0.0195
584.63;	0.0195
584.89;	0.0195
585.15;	0.0195
585.41;	0.0196
585.67;	0.0196
585.93;	0.0196
586.19;	0.0196
586.45;	0.0196
586.71;	0.0197
586.97;	0.0197
587.23;	0.0197
587.49;	0.0198
587.75;	0.0198
588.01;	0.0198
588.27;	0.0199
588.53;	0.0199
588.79;	0.0200
589.05;	0.0200
589.31;	0.0201
589.56;	0.0201
589.82;	0.0202
590.08;	0.0202
590.34;	0.0203
590.60;	0.0203
590.86;	0.0204
591.12;	0.0204
591.38;	0.0205
591.64;	0.0205
591.90;	0.0206
592.16;	0.0206
592.42;	0.0207
592.68;	0.0208
592.94;	0.0208
593.20;	0.0209
593.46;	0.0210
593.72;	0.0210
593.98;	0.0211
594.24;	0.0212
594.50;	0.0212
594.76;	0.0213
595.02;	0.0214
595.27;	0.0214
595.53;	0.0215
595.79;	0.0216
596.05;	0.0217
596.31;	0.0217
596.57;	0.0218
596.83;	0.0219
597.09;	0.0220
597.35;	0.0221
597.61;	0.0221
597.87;	0.0222
598.13;	0.0223
598.39;	0.0224
598.65;	0.0225
598.91;	0.0226
599.17;	0.0226
599.43;	0.0227
599.69;	0.0228
599.95;	0.0229
600.21;	0.0230
600.47;	0.0231
600.73;	0.0232
600.98;	0.0232
601.24;	0.0233
601.50;	0.0234
601.76;	0.0235
602.02;	0.0236
602.28;	0.0237
602.54;	0.0238
602.80;	0.0239
603.06;	0.0240
603.32;	0.0241
603.58;	0.0242
603.84;	0.0243
604.10;	0.0244
604.36;	0.0245
604.62;	0.0245
604.88;	0.0246
605.14;	0.0247
605.40;	0.0248
605.66;	0.0249
605.92;	0.0250
606.18;	0.0251
606.44;	0.0252
606.69;	0.0253
606.95;	0.0254
607.21;	0.0255
607.47;	0.0256
607.73;	0.0257
607.99;	0.0258
608.25;	0.0259
608.51;	0.0260
608.77;	0.0261
609.03;	0.0262
609.29;	0.0263
609.55;	0.0264
609.81;	0.0265
610.07;	0.0266
610.33;	0.0267
610.59;	0.0268
610.85;	0.0269
611.11;	0.0271
611.37;	0.0272
611.63;	0.0273
611.89;	0.0274
612.15;	0.0275
612.41;	0.0276
612.66;	0.0277
612.92;	0.0278
613.18;	0.0279
613.44;	0.0280
613.70;	0.0281
613.96;	0.0282
614.22;	0.0283
614.48;	0.0284
614.74;	0.0285
615.00;	0.0286
615.26;	0.0287
615.52;	0.0288
615.78;	0.0289
616.04;	0.0290
616.30;	0.0291
616.56;	0.0293
616.82;	0.0294
617.08;	0.0295
617.34;	0.0296
617.60;	0.0297
617.86;	0.0298
618.12;	0.0299
618.37;	0.0300
618.63;	0.0301
618.89;	0.0302
619.15;	0.0303
619.41;	0.0304
619.67;	0.0305
619.93;	0.0306
620.19;	0.0307
620.45;	0.0308
620.71;	0.0309
620.97;	0.0311
621.23;	0.0312
621.49;	0.0313
621.75;	0.0314
622.01;	0.0315
622.27;	0.0316
622.53;	0.0317
622.79;	0.0318
623.05;	0.0319
623.31;	0.0320
623.57;	0.0321
623.83;	0.0322
624.08;	0.0323
624.34;	0.0324
624.60;	0.0325
624.86;	0.0326
625.12;	0.0327
625.38;	0.0328
625.64;	0.0329
625.90;	0.0331
626.16;	0.0332
626.42;	0.0333
626.68;	0.0334
626.94;	0.0335
627.20;	0.0336
627.46;	0.0337
627.72;	0.0338
627.98;	0.0339
628.24;	0.0340
628.50;	0.0341
628.76;	0.0342
629.02;	0.0343
629.28;	0.0344
629.54;	0.0345
629.80;	0.0346
630.05;	0.0347
630.31;	0.0348
630.57;	0.0349
630.83;	0.0350
631.09;	0.0351
631.35;	0.0352
631.61;	0.0353
631.87;	0.0354
632.13;	0.0355
632.39;	0.0356
632.65;	0.0357
632.91;	0.0358
633.17;	0.0359
633.43;	0.0360
633.69;	0.0361
633.95;	0.0362
634.21;	0.0363
634.47;	0.0364
634.73;	0.0365
634.99;	0.0366
635.25;	0.0367
635.51;	0.0368
635.76;	0.0369
636.02;	0.0370
636.28;	0.0371
636.54;	0.0372
636.80;	0.0373
637.06;	0.0374
637.32;	0.0375
637.58;	0.0375
637.84;	0.0376
638.10;	0.0377
638.36;	0.0378
638.62;	0.0379
638.88;	0.0380
639.14;	0.0381
639.40;	0.0382
639.66;	0.0383
639.92;	0.0384
640.18;	0.0385
640.44;	0.0386
640.70;	0.0387
640.96;	0.0387
641.22;	0.0388
641.47;	0.0389
641.73;	0.0390
641.99;	0.0391
642.25;	0.0392
642.51;	0.0393
642.77;	0.0394
643.03;	0.0394
643.29;	0.0395
643.55;	0.0396
643.81;	0.0397
644.07;	0.0398
644.33;	0.0399
644.59;	0.0400
644.85;	0.0400
645.11;	0.0401
645.37;	0.0402
645.63;	0.0403
645.89;	0.0404
646.15;	0.0405
646.41;	0.0405
646.67;	0.0406
646.93;	0.0407
647.18;	0.0408
647.44;	0.0409
647.70;	0.0409
647.96;	0.0410
648.22;	0.0411
648.48;	0.0412
648.74;	0.0412
649.00;	0.0413
649.26;	0.0414
649.52;	0.0415
649.78;	0.0415
650.04;	0.0416
650.30;	0.0417
650.56;	0.0418
650.82;	0.0418
651.08;	0.0419
651.34;	0.0420
651.60;	0.0421
651.86;	0.0421
652.12;	0.0422
652.38;	0.0423
652.64;	0.0423
652.90;	0.0424
653.15;	0.0425
653.41;	0.0425
653.67;	0.0426
653.93;	0.0427
654.19;	0.0428
654.45;	0.0428
654.71;	0.0429
654.97;	0.0429
655.23;	0.0430
655.49;	0.0431
655.75;	0.0431
656.01;	0.0432
656.27;	0.0433
656.53;	0.0433
656.79;	0.0434
657.05;	0.0434
657.31;	0.0435
657.57;	0.0436
657.83;	0.0436
658.09;	0.0437
658.35;	0.0437
658.61;	0.0438
658.86;	0.0439
659.12;	0.0439
659.38;	0.0440
659.64;	0.0440
659.90;	0.0441
660.16;	0.0441
660.42;	0.0442
660.68;	0.0442
660.94;	0.0443
661.20;	0.0443
661.46;	0.0444
661.72;	0.0444
661.98;	0.0445
662.24;	0.0445
662.50;	0.0446
662.76;	0.0446
663.02;	0.0447
663.28;	0.0447
663.54;	0.0448
663.80;	0.0448
664.06;	0.0449
664.32;	0.0449
664.57;	0.0449
664.83;	0.0450
665.09;	0.0450
665.35;	0.0451
665.61;	0.0451
665.87;	0.0451
666.13;	0.0452
666.39;	0.0452
666.65;	0.0453
666.91;	0.0453
667.17;	0.0453
667.43;	0.0454
667.69;	0.0454
667.95;	0.0454
668.21;	0.0455
668.47;	0.0455
668.73;	0.0455
668.99;	0.0456
669.25;	0.0456
669.51;	0.0456
669.77;	0.0457
670.03;	0.0457
670.29;	0.0457
670.54;	0.0458
670.80;	0.0458
671.06;	0.0458
671.32;	0.0458
671.58;	0.0459
671.84;	0.0459
672.10;	0.0459
672.36;	0.0459
672.62;	0.0460
672.88;	0.0460
673.14;	0.0460
673.40;	0.0460
673.66;	0.0460
673.92;	0.0461
674.18;	0.0461
674.44;	0.0461
674.70;	0.0461
674.96;	0.0461
675.22;	0.0461
675.48;	0.0462
675.74;	0.0462
676.00;	0.0462
676.25;	0.0462
676.51;	0.0462
676.77;	0.0462
677.03;	0.0462
677.29;	0.0462
677.55;	0.0463
677.81;	0.0463
678.07;	0.0463
678.33;	0.0463
678.59;	0.0463
678.85;	0.0463
679.11;	0.0463
679.37;	0.0463
679.63;	0.0463
679.89;	0.0463
680.15;	0.0463
680.41;	0.0463
680.67;	0.0463
680.93;	0.0463
681.19;	0.0463
681.45;	0.0463
681.71;	0.0463
681.96;	0.0463
682.22;	0.0463
682.48;	0.0463
682.74;	0.0463
683.00;	0.0463
683.26;	0.0463
683.52;	0.0463
683.78;	0.0463
684.04;	0.0463
684.30;	0.0463
684.56;	0.0462
684.82;	0.0462
685.08;	0.0462
685.34;	0.0462
685.60;	0.0462
685.86;	0.0462
686.12;	0.0462
686.38;	0.0462
686.64;	0.0461
686.90;	0.0461
687.16;	0.0461
687.42;	0.0461
687.67;	0.0461
687.93;	0.0461
688.19;	0.0460
688.45;	0.0460
688.71;	0.0460
688.97;	0.0460
689.23;	0.0460
689.49;	0.0459
689.75;	0.0459
690.01;	0.0459
690.27;	0.0459
690.53;	0.0458
690.79;	0.0458
691.05;	0.0458
691.31;	0.0458
691.57;	0.0457
691.83;	0.0457
692.09;	0.0457
692.35;	0.0457
692.61;	0.0456
692.87;	0.0456
693.13;	0.0456
693.39;	0.0455
693.64;	0.0455
693.90;	0.0455
694.16;	0.0454
694.42;	0.0454
694.68;	0.0454
694.94;	0.0453
695.20;	0.0453
695.46;	0.0452
695.72;	0.0452
695.98;	0.0452
696.24;	0.0451
696.50;	0.0451
696.76;	0.0450
697.02;	0.0450
697.28;	0.0450
697.54;	0.0449
697.80;	0.0449
698.06;	0.0448
698.32;	0.0448
698.58;	0.0447
698.84;	0.0447
699.10;	0.0447
699.35;	0.0446
699.61;	0.0446
699.87;	0.0445
700.13;	0.0445
700.39;	0.0444
700.65;	0.0444
700.91;	0.0443
701.17;	0.0443
701.43;	0.0442
701.69;	0.0442
701.95;	0.0441
702.21;	0.0440
702.47;	0.0440
702.73;	0.0439
702.99;	0.0439
703.25;	0.0438
703.51;	0.0438
703.77;	0.0437
704.03;	0.0437
704.29;	0.0436
704.55;	0.0435
704.81;	0.0435
705.06;	0.0434
705.32;	0.0434
705.58;	0.0433
705.84;	0.0432
706.10;	0.0432
706.36;	0.0431
706.62;	0.0430
706.88;	0.0430
707.14;	0.0429
707.40;	0.0429
707.66;	0.0428
707.92;	0.0427
708.18;	0.0427
708.44;	0.0426
708.70;	0.0425
708.96;	0.0425
709.22;	0.0424
709.48;	0.0423
709.74;	0.0422
710.00;	0.0422
710.26;	0.0421
710.52;	0.0420
710.78;	0.0420
711.03;	0.0419
711.29;	0.0418
711.55;	0.0417
711.81;	0.0417
712.07;	0.0416
712.33;	0.0415
712.59;	0.0414
712.85;	0.0414
713.11;	0.0413
713.37;	0.0412
713.63;	0.0411
713.89;	0.0411
714.15;	0.0410
714.41;	0.0409
714.67;	0.0408
714.93;	0.0407
715.19;	0.0407
715.45;	0.0406
715.71;	0.0405
715.97;	0.0404
716.23;	0.0403
716.49;	0.0403
716.74;	0.0402
717.00;	0.0401
717.26;	0.0400
717.52;	0.0399
717.78;	0.0398
718.04;	0.0397
718.30;	0.0397
718.56;	0.0396
718.82;	0.0395
719.08;	0.0394
719.34;	0.0393
719.60;	0.0392
719.86;	0.0391
720.12;	0.0391
720.38;	0.0390
720.64;	0.0389
720.90;	0.0388
721.16;	0.0387
721.42;	0.0386
721.68;	0.0385
721.94;	0.0384
722.20;	0.0383
722.45;	0.0382
722.71;	0.0382
722.97;	0.0381
723.23;	0.0380
723.49;	0.0379
723.75;	0.0378
724.01;	0.0377
724.27;	0.0376
724.53;	0.0375
724.79;	0.0374
725.05;	0.0373
725.31;	0.0372
725.57;	0.0371
725.83;	0.0370
726.09;	0.0369
726.35;	0.0368
726.61;	0.0367
726.87;	0.0366
727.13;	0.0365
727.39;	0.0364
727.65;	0.0363
727.91;	0.0362
728.16;	0.0361
728.42;	0.0360
728.68;	0.0360
728.94;	0.0359
729.20;	0.0358
729.46;	0.0357
729.72;	0.0356
729.98;	0.0355
730.24;	0.0354
730.50;	0.0353
730.76;	0.0351
731.02;	0.0350
731.28;	0.0349
731.54;	0.0348
731.80;	0.0347
732.06;	0.0346
732.32;	0.0345
732.58;	0.0344
732.84;	0.0343
733.10;	0.0342
733.36;	0.0341
733.62;	0.0340
733.88;	0.0339
734.13;	0.0338
734.39;	0.0337
734.65;	0.0336
734.91;	0.0335
735.17;	0.0334
735.43;	0.0333
735.69;	0.0332
735.95;	0.0331
736.21;	0.0330
736.47;	0.0329
736.73;	0.0328
736.99;	0.0327
737.25;	0.0326
737.51;	0.0325
737.77;	0.0323
738.03;	0.0322
738.29;	0.0321
738.55;	0.0320
738.81;	0.0319
739.07;	0.0318
739.33;	0.0317
739.59;	0.0316
739.84;	0.0315
740.10;	0.0314
740.36;	0.0313
740.62;	0.0312
740.88;	0.0311
741.14;	0.0310
741.40;	0.0308
741.66;	0.0307
741.92;	0.0306
742.18;	0.0305
742.44;	0.0304
742.70;	0.0303
742.96;	0.0302
743.22;	0.0301
743.48;	0.0300
743.74;	0.0299
744.00;	0.0298
744.26;	0.0297
744.52;	0.0295
744.78;	0.0294
745.04;	0.0293
745.30;	0.0292
745.55;	0.0291
745.81;	0.0290
746.07;	0.0289
746.33;	0.0288
746.59;	0.0287
746.85;	0.0286
747.11;	0.0285
747.37;	0.0284
747.63;	0.0282
747.89;	0.0281
748.15;	0.0280
748.41;	0.0279
748.67;	0.0278
748.93;	0.0277
749.19;	0.0276
749.45;	0.0275
749.71;	0.0274
749.97;	0.0273
750.23;	0.0272
750.49;	0.0270
750.75;	0.0269
751.01;	0.0268
751.27;	0.0267
751.52;	0.0266
751.78;	0.0265
752.04;	0.0264
752.30;	0.0263
752.56;	0.0262
752.82;	0.0261
753.08;	0.0260
753.34;	0.0259
753.60;	0.0257
753.86;	0.0256
754.12;	0.0255
754.38;	0.0254
754.64;	0.0253
754.90;	0.0252
755.16;	0.0251
755.42;	0.0250
755.68;	0.0249
755.94;	0.0248
756.20;	0.0247
756.46;	0.0246
756.72;	0.0245
756.98;	0.0243
757.23;	0.0242
757.49;	0.0241
757.75;	0.0240
758.01;	0.0239
758.27;	0.0238
758.53;	0.0237
758.79;	0.0236
759.05;	0.0235
759.31;	0.0234
759.57;	0.0233
759.83;	0.0232
760.09;	0.0231
760.35;	0.0230
760.61;	0.0229
760.87;	0.0228
761.13;	0.0227
761.39;	0.0225
761.65;	0.0224
761.91;	0.0223
762.17;	0.0222
762.43;	0.0221
762.69;	0.0220
762.94;	0.0219
763.20;	0.0218
763.46;	0.0217
763.72;	0.0216
763.98;	0.0215
764.24;	0.0214
764.50;	0.0213
764.76;	0.0212
765.02;	0.0211
765.28;	0.0210
765.54;	0.0209
765.80;	0.0208
766.06;	0.0207
766.32;	0.0206
766.58;	0.0205
766.84;	0.0204
767.10;	0.0203
767.36;	0.0202
767.62;	0.0201
767.88;	0.0200
768.14;	0.0199
768.40;	0.0198
768.65;	0.0197
768.91;	0.0196
769.17;	0.0195
769.43;	0.0194
769.69;	0.0193
769.95;	0.0192
770.21;	0.0191
770.47;	0.0190
770.73;	0.0189
770.99;	0.0188
771.25;	0.0187
771.51;	0.0186
771.77;	0.0185
772.03;	0.0184
772.29;	0.0183
772.55;	0.0182
772.81;	0.0181
773.07;	0.0180
773.33;	0.0179
773.59;	0.0178
773.85;	0.0177
774.11;	0.0176
774.37;	0.0175
774.62;	0.0174
774.88;	0.0174
775.14;	0.0173
775.40;	0.0172
775.66;	0.0171
775.92;	0.0170
776.18;	0.0169
776.44;	0.0168
776.70;	0.0167
776.96;	0.0166
777.22;	0.0165
777.48;	0.0164
777.74;	0.0163
778.00;	0.0162
778.26;	0.0161
778.52;	0.0161
778.78;	0.0160
779.04;	0.0159
779.30;	0.0158
779.56;	0.0157
779.82;	0.0156
780.08;	0.0155
780.33;	0.0154
780.59;	0.0153
780.85;	0.0153
781.11;	0.0152
781.37;	0.0151
781.63;	0.0150
781.89;	0.0149
782.15;	0.0148
782.41;	0.0147
782.67;	0.0146
782.93;	0.0146
783.19;	0.0145
783.45;	0.0144
783.71;	0.0143
783.97;	0.0142
784.23;	0.0141
784.49;	0.0140
784.75;	0.0140
785.01;	0.0139
785.27;	0.0138
785.53;	0.0137
785.79;	0.0136
786.04;	0.0135
786.30;	0.0135
786.56;	0.0134
786.82;	0.0133
787.08;	0.0132
787.34;	0.0131
787.60;	0.0131
787.86;	0.0130
788.12;	0.0129
788.38;	0.0128
788.64;	0.0127
788.90;	0.0127
789.16;	0.0126
789.42;	0.0125
789.68;	0.0124
789.94;	0.0123
790.20;	0.0123
790.46;	0.0122
790.72;	0.0121
790.98;	0.0120
791.24;	0.0120
791.50;	0.0119
791.76;	0.0118
792.01;	0.0117
792.27;	0.0117
792.53;	0.0116
792.79;	0.0115
793.05;	0.0114
793.31;	0.0114
793.57;	0.0113
793.83;	0.0112
794.09;	0.0111
794.35;	0.0111
794.61;	0.0110
794.87;	0.0109
795.13;	0.0109
795.39;	0.0108
795.65;	0.0107
795.91;	0.0106
796.17;	0.0106
796.43;	0.0105
796.69;	0.0104
796.95;	0.0104
797.21;	0.0103
797.47;	0.0102
797.72;	0.0102
797.98;	0.0101
798.24;	0.0100
798.50;	0.0099
798.76;	0.0099
799.02;	0.0098
799.28;	0.0097
799.54;	0.0097
799.80;	0.0096
800.06;	0.0095
800.32;	0.0095
800.58;	0.0094
800.84;	0.0094
801.10;	0.0093
801.36;	0.0092
801.62;	0.0092
801.88;	0.0091
802.14;	0.0090
802.40;	0.0090
802.66;	0.0089
802.92;	0.0088
803.18;	0.0088
803.43;	0.0087
803.69;	0.0087
803.95;	0.0086
804.21;	0.0085
804.47;	0.0085
804.73;	0.0084
804.99;	0.0084
805.25;	0.0083
805.51;	0.0082
805.77;	0.0082
806.03;	0.0081
806.29;	0.0081
806.55;	0.0080
806.81;	0.0079
807.07;	0.0079
807.33;	0.0078
807.59;	0.0078
807.85;	0.0077
808.11;	0.0077
808.37;	0.0076
808.63;	0.0075
808.89;	0.0075
809.14;	0.0074
809.40;	0.0074
809.66;	0.0073
809.92;	0.0073
810.18;	0.0072
810.44;	0.0072
810.70;	0.0071
810.96;	0.0071
811.22;	0.0070
811.48;	0.0070
811.74;	0.0069
812.00;	0.0068
