wavelength, nm;	absorption
380.00;	0.9036
380.35;	0.9173
380.70;	0.9312
381.06;	0.9452
381.41;	0.9593
381.76;	0.9735
382.11;	0.9879
382.46;	1.0024
382.82;	1.0170
383.17;	1.0317
383.52;	1.0466
383.87;	1.0615
384.22;	1.0766
384.58;	1.0919
384.93;	1.1072
385.28;	1.1227
385.63;	1.1383
385.98;	1.1540
386.34;	1.1698
386.69;	1.1857
387.04;	1.2018
387.39;	1.2179
387.74;	1.2342
388.10;	1.2506
388.45;	1.2670
388.80;	1.2836
389.15;	1.3003
389.50;	1.3171
389.86;	1.3341
390.21;	1.3511
390.56;	1.3682
390.91;	1.3854
391.26;	1.4027
391.62;	1.4201
391.97;	1.4376
392.32;	1.4551
392.67;	1.4728
393.03;	1.4906
393.38;	1.5084
393.73;	1.5263
394.08;	1.5443
394.43;	1.5624
394.79;	1.5806
395.14;	1.5988
395.49;	1.6171
395.84;	1.6355
396.19;	1.6539
396.55;	1.6724
396.90;	1.6910
397.25;	1.7096
397.60;	1.7283
397.95;	1.7470
398.31;	1.7658
398.66;	1.7846
399.01;	1.8035
399.36;	1.8224
399.71;	1.8414
400.07;	1.8604
400.42;	1.8794
400.77;	1.8985
401.12;	1.9176
401.47;	1.9367
401.83;	1.9558
402.18;	1.9750
402.53;	1.9942
402.88;	2.0134
403.23;	2.0326
403.59;	2.0518
403.94;	2.0710
404.29;	2.0902
404.64;	2.1095
404.99;	2.1287
405.35;	2.1479
405.70;	2.1670
406.05;	2.1862
406.40;	2.2054
406.75;	2.2245
407.11;	2.2436
407.46;	2.2627
407.81;	2.2817
408.16;	2.3007
408.51;	2.3197
408.87;	2.3386
409.22;	2.3574
409.57;	2.3762
409.92;	2.3950
410.27;	2.4137
410.63;	2.4323
410.98;	2.4509
411.33;	2.4694
411.68;	2.4878
412.03;	2.5062
412.39;	2.5245
412.74;	2.5426
413.09;	2.5607
413.44;	2.5787
413.79;	2.5966
414.15;	2.6144
414.50;	2.6321
414.85;	2.6497
415.20;	2.6672
415.55;	2.6846
415.91;	2.7018
416.26;	2.7190
416.61;	2.7360
416.96;	2.7528
417.31;	2.7696
417.67;	2.7862
418.02;	2.8026
418.37;	2.8189
418.72;	2.8351
419.08;	2.8511
419.43;	2.8670
419.78;	2.8827
420.13;	2.8982
420.48;	2.9136
420.84;	2.9288
421.19;	2.9438
421.54;	2.9586
421.89;	2.9733
422.24;	2.9878
422.60;	3.0021
422.95;	3.0162
423.30;	3.0301
423.65;	3.0438
424.00;	3.0573
424.36;	3.0706
424.71;	3.0837
425.06;	3.0966
425.41;	3.1093
425.76;	3.1218
426.12;	3.1340
426.47;	3.1461
426.82;	3.1579
427.17;	3.1694
427.52;	3.1808
427.88;	3.1919
428.23;	3.2028
428.58;	3.2134
428.93;	3.2238
429.28;	3.2339
429.64;	3.2438
429.99;	3.2535
430.34;	3.2629
430.69;	3.2721
431.04;	3.2809
431.40;	3.2896
431.75;	3.2980
432.10;	3.3061
432.45;	3.3139
432.80;	3.3215
433.16;	3.3288
433.51;	3.3359
433.86;	3.3426
434.21;	3.3491
434.56;	3.3553
434.92;	3.3613
435.27;	3.3670
435.62;	3.3723
435.97;	3.3775
436.32;	3.3823
436.68;	3.3868
437.03;	3.3911
437.38;	3.3950
437.73;	3.3987
438.08;	3.4021
438.44;	3.4052
438.79;	3.4080
439.14;	3.4106
439.49;	3.4128
439.84;	3.4147
440.20;	3.4164
440.55;	3.4177
440.90;	3.4188
441.25;	3.4196
441.60;	3.4201
441.96;	3.4202
442.31;	3.4201
442.66;	3.4197
443.01;	3.4190
443.36;	3.4181
443.72;	3.4168
444.07;	3.4152
444.42;	3.4133
444.77;	3.4112
445.13;	3.4087
445.48;	3.4060
445.83;	3.4030
446.18;	3.3996
446.53;	3.3960
446.89;	3.3921
447.24;	3.3880
447.59;	3.3835
447.94;	3.3788
448.29;	3.3737
448.65;	3.3684
449.00;	3.3628
449.35;	3.3569
449.70;	3.3508
450.05;	3.3444
450.41;	3.3377
450.76;	3.3307
451.11;	3.3235
451.46;	3.3160
451.81;	3.3082
452.17;	3.3001
452.52;	3.2918
452.87;	3.2833
453.22;	3.2744
453.57;	3.2654
453.93;	3.2560
454.28;	3.2464
454.63;	3.2366
454.98;	3.2265
455.33;	3.2162
455.69;	3.2056
456.04;	3.1948
456.39;	3.1838
456.74;	3.1725
457.09;	3.1610
457.45;	3.1492
457.80;	3.1373
458.15;	3.1251
458.50;	3.1127
458.85;	3.1001
459.21;	3.0872
459.56;	3.0742
459.91;	3.0609
460.26;	3.0475
460.61;	3.0338
460.97;	3.0200
461.32;	3.0059
461.67;	2.9917
462.02;	2.9772
462.37;	2.9626
462.73;	2.9478
463.08;	2.9328
463.43;	2.9177
463.78;	2.9024
464.13;	2.8869
464.49;	2.8712
464.84;	2.8554
465.19;	2.8395
465.54;	2.8233
465.89;	2.8071
466.25;	2.7907
466.60;	2.7741
466.95;	2.7574
467.30;	2.7406
467.65;	2.7236
468.01;	2.7065
468.36;	2.6893
468.71;	2.6720
469.06;	2.6546
469.42;	2.6370
469.77;	2.6193
470.12;	2.6016
470.47;	2.5837
470.82;	2.5657
471.18;	2.5477
471.53;	2.5295
471.88;	2.5113
472.23;	2.4930
472.58;	2.4746
472.94;	2.4561
473.29;	2.4376
473.64;	2.4190
473.99;	2.4003
474.34;	2.3816
474.70;	2.3628
475.05;	2.3439
475.40;	2.3250
475.75;	2.3061
476.10;	2.2871
476.46;	2.2681
476.81;	2.2491
477.16;	2.2300
477.51;	2.2109
477.86;	2.1917
478.22;	2.1726
478.57;	2.1534
478.92;	2.1342
479.27;	2.1151
479.62;	2.0959
479.98;	2.0767
480.33;	2.0575
480.68;	2.0383
481.03;	2.0191
481.38;	1.9999
481.74;	1.9807
482.09;	1.9616
482.44;	1.9424
482.79;	1.9233
483.14;	1.9042
483.50;	1.8852
483.85;	1.8661
484.20;	1.8472
484.55;	1.8282
484.90;	1.8093
485.26;	1.7904
485.61;	1.7716
485.96;	1.7528
486.31;	1.7341
486.66;	1.7154
487.02;	1.6968
487.37;	1.6782
487.72;	1.6597
488.07;	1.6413
488.42;	1.6229
488.78;	1.6046
489.13;	1.5864
489.48;	1.5683
489.83;	1.5502
490.18;	1.5322
490.54;	1.5143
490.89;	1.4964
491.24;	1.4787
491.59;	1.4610
491.94;	1.4434
492.30;	1.4259
492.65;	1.4086
493.00;	1.3913
493.35;	1.3740
493.70;	1.3569
494.06;	1.3399
494.41;	1.3230
494.76;	1.3062
495.11;	1.2895
495.47;	1.2729
495.82;	1.2564
496.17;	1.2401
496.52;	1.2238
496.87;	1.2076
497.23;	1.1916
497.58;	1.1757
497.93;	1.1598
498.28;	1.1441
498.63;	1.1286
498.99;	1.1131
499.34;	1.0978
499.69;	1.0825
500.04;	1.0674
500.39;	1.0525
500.75;	1.0376
501.10;	1.0229
501.45;	1.0083
501.80;	0.9938
502.15;	0.9794
502.51;	0.9652
502.86;	0.9511
503.21;	0.9371
503.56;	0.9233
503.91;	0.9095
504.27;	0.8960
504.62;	0.8825
504.97;	0.8692
505.32;	0.8560
505.67;	0.8429
506.03;	0.8300
506.38;	0.8172
506.73;	0.8045
507.08;	0.7919
507.43;	0.7795
507.79;	0.7672
508.14;	0.7551
508.49;	0.7431
508.84;	0.7312
509.19;	0.7194
509.55;	0.7078
509.90;	0.6963
510.25;	0.6849
510.60;	0.6737
510.95;	0.6626
511.31;	0.6516
511.66;	0.6408
512.01;	0.6301
512.36;	0.6195
512.71;	0.6090
513.07;	0.5987
513.42;	0.5885
513.77;	0.5785
514.12;	0.5685
514.47;	0.5587
514.83;	0.5490
515.18;	0.5394
515.53;	0.5300
515.88;	0.5207
516.23;	0.5115
516.59;	0.5024
516.94;	0.4935
517.29;	0.4847
517.64;	0.4760
517.99;	0.4674
518.35;	0.4589
518.70;	0.4506
519.05;	0.4424
519.40;	0.4342
519.75;	0.4263
520.11;	0.4184
520.46;	0.4106
520.81;	0.4030
521.16;	0.3954
521.52;	0.3880
521.87;	0.3807
522.22;	0.3735
522.57;	0.3664
522.92;	0.3595
523.28;	0.3526
523.63;	0.3458
523.98;	0.3392
524.33;	0.3326
524.68;	0.3262
525.04;	0.3198
525.39;	0.3136
525.74;	0.3075
526.09;	0.3014
526.44;	0.2955
526.80;	0.2896
527.15;	0.2839
527.50;	0.2782
527.85;	0.2727
528.20;	0.2672
528.56;	0.2619
528.91;	0.2566
529.26;	0.2514
529.61;	0.2463
529.96;	0.2413
530.32;	0.2364
530.67;	0.2316
531.02;	0.2269
531.37;	0.2222
531.72;	0.2177
532.08;	0.2132
532.43;	0.2088
532.78;	0.2045
533.13;	0.2002
533.48;	0.1961
533.84;	0.1920
534.19;	0.1880
534.54;	0.1841
534.89;	0.1802
535.24;	0.1764
535.60;	0.1727
535.95;	0.1691
536.30;	0.1655
536.65;	0.1621
537.00;	0.1586
537.36;	0.1553
537.71;	0.1520
538.06;	0.1488
538.41;	0.1456
538.76;	0.1426
539.12;	0.1395
539.47;	0.1366
539.82;	0.1337
540.17;	0.1308
540.52;	0.1281
540.88;	0.1253
541.23;	0.1227
541.58;	0.1201
541.93;	0.1175
542.28;	0.1151
542.64;	0.1126
542.99;	0.1102
543.34;	0.1079
543.69;	0.1056
544.04;	0.1034
544.40;	0.1012
544.75;	0.0991
545.10;	0.0970
545.45;	0.0950
545.81;	0.0930
546.16;	0.0911
546.51;	0.0892
546.86;	0.0874
547.21;	0.0856
547.57;	0.0838
547.92;	0.0821
548.27;	0.0804
548.62;	0.0788
548.97;	0.0772
549.33;	0.0757
549.68;	0.0741
550.03;	0.0727
550.38;	0.0712
550.73;	0.0698
551.09;	0.0685
551.44;	0.0671
551.79;	0.0658
552.14;	0.0646
552.49;	0.0634
552.85;	0.0622
553.20;	0.0610
553.55;	0.0599
553.90;	0.0588
554.25;	0.0577
554.61;	0.0567
554.96;	0.0557
555.31;	0.0547
555.66;	0.0537
556.01;	0.0528
556.37;	0.0519
556.72;	0.0511
557.07;	0.0502
557.42;	0.0494
557.77;	0.0486
558.13;	0.0478
558.48;	0.0471
558.83;	0.0464
559.18;	0.0457
559.53;	0.0450
559.89;	0.0443
560.24;	0.0437
560.59;	0.0431
560.94;	0.0425
561.29;	0.0419
561.65;	0.0414
562.00;	0.0409
562.35;	0.0404
562.70;	0.0399
563.05;	0.0394
563.41;	0.0389
563.76;	0.0385
564.11;	0.0381
564.46;	0.0377
564.81;	0.0373
565.17;	0.0369
565.52;	0.0365
565.87;	0.0362
566.22;	0.0359
566.57;	0.0356
566.93;	0.0353
567.28;	0.0350
567.63;	0.0347
567.98;	0.0345
568.33;	0.0342
568.69;	0.0340
569.04;	0.0338
569.39;	0.0336
569.74;	0.0334
570.09;	0.0332
570.45;	0.0330
570.80;	0.0329
571.15;	0.0327
571.50;	0.0326
571.86;	0.0324
572.21;	0.0323
572.56;	0.0322
572.91;	0.0321
573.26;	0.0320
573.62;	0.0319
573.97;	0.0319
574.32;	0.0318
574.67;	0.0318
575.02;	0.0317
575.38;	0.0317
575.73;	0.0317
576.08;	0.0316
576.43;	0.0316
576.78;	0.0316
577.14;	0.0316
577.49;	0.0316
577.84;	0.0316
578.19;	0.0317
578.54;	0.0317
578.90;	0.0317
579.25;	0.0318
579.60;	0.0318
579.95;	0.0319
580.30;	0.0319
580.66;	0.0320
581.01;	0.0321
581.36;	0.0321
581.71;	0.0322
582.06;	0.0323
582.42;	0.0324
582.77;	0.0325
583.12;	0.0326
583.47;	0.0327
583.82;	0.0328
584.18;	0.0329
584.53;	0.0331
584.88;	0.0332
585.23;	0.0333
585.58;	0.0334
585.94;	0.0336
586.29;	0.0337
586.64;	0.0339
586.99;	0.0340
587.34;	0.0342
587.70;	0.0343
588.05;	0.0345
588.40;	0.0346
588.75;	0.0348
589.10;	0.0350
589.46;	0.0352
589.81;	0.0353
590.16;	0.0355
590.51;	0.0357
590.86;	0.0359
591.22;	0.0361
591.57;	0.0362
591.92;	0.0364
592.27;	0.0366
592.62;	0.0368
592.98;	0.0370
593.33;	0.0372
593.68;	0.0374
594.03;	0.0376
594.38;	0.0378
594.74;	0.0380
595.09;	0.0383
595.44;	0.0385
595.79;	0.0387
596.14;	0.0389
596.50;	0.0391
596.85;	0.0393
597.20;	0.0396
597.55;	0.0398
597.91;	0.0400
598.26;	0.0402
598.61;	0.0405
598.96;	0.0407
599.31;	0.0409
599.67;	0.0412
600.02;	0.0414
600.37;	0.0416
600.72;	0.0419
601.07;	0.0421
601.43;	0.0424
601.78;	0.0426
602.13;	0.0429
602.48;	0.0431
602.83;	0.0433
603.19;	0.0436
603.54;	0.0438
603.89;	0.0441
604.24;	0.0443
604.59;	0.0446
604.95;	0.0448
605.30;	0.0451
605.65;	0.0453
606.00;	0.0456
606.35;	0.0458
606.71;	0.0461
607.06;	0.0464
607.41;	0.0466
607.76;	0.0469
608.11;	0.0471
608.47;	0.0474
608.82;	0.0476
609.17;	0.0479
609.52;	0.0482
609.87;	0.0484
610.23;	0.0487
610.58;	0.0489
610.93;	0.0492
611.28;	0.0495
611.63;	0.0497
611.99;	0.0500
612.34;	0.0503
612.69;	0.0505
613.04;	0.0508
613.39;	0.0511
613.75;	0.0513
614.10;	0.0516
614.45;	0.0518
614.80;	0.0521
615.15;	0.0524
615.51;	0.0526
615.86;	0.0529
616.21;	0.0532
616.56;	0.0534
616.91;	0.0537
617.27;	0.0540
617.62;	0.0542
617.97;	0.0545
618.32;	0.0548
618.67;	0.0550
619.03;	0.0553
619.38;	0.0556
619.73;	0.0558
620.08;	0.0561
620.43;	0.0564
620.79;	0.0566
621.14;	0.0569
621.49;	0.0572
621.84;	0.0574
622.19;	0.0577
622.55;	0.0579
622.90;	0.0582
623.25;	0.0585
623.60;	0.0587
623.96;	0.0590
624.31;	0.0593
624.66;	0.0595
625.01;	0.0598
625.36;	0.0600
625.72;	0.0603
626.07;	0.0606
626.42;	0.0608
626.77;	0.0611
627.12;	0.0613
627.48;	0.0616
627.83;	0.0619
628.18;	0.0621
628.53;	0.0624
628.88;	0.0626
629.24;	0.0629
629.59;	0.0631
629.94;	0.0634
630.29;	0.0636
630.64;	0.0639
631.00;	0.0641
631.35;	0.0644
631.70;	0.0646
632.05;	0.0649
632.40;	0.0651
632.76;	0.0654
633.11;	0.0656
633.46;	0.0659
633.81;	0.0661
634.16;	0.0664
634.52;	0.0666
634.87;	0.0669
635.22;	0.0671
635.57;	0.0673
635.92;	0.0676
636.28;	0.0678
636.63;	0.0680
636.98;	0.0683
637.33;	0.0685
637.68;	0.0688
638.04;	0.0690
638.39;	0.0692
638.74;	0.0694
639.09;	0.0697
639.44;	0.0699
639.80;	0.0701
640.15;	0.0704
640.50;	0.0706
640.85;	0.0708
641.20;	0.0710
641.56;	0.0712
641.91;	0.0715
642.26;	0.0717
642.61;	0.0719
642.96;	0.0721
643.32;	0.0723
643.67;	0.0725
644.02;	0.0728
644.37;	0.0730
644.72;	0.0732
645.08;	0.0734
645.43;	0.0736
645.78;	0.0738
646.13;	0.0740
646.48;	0.0742
646.84;	0.0744
647.19;	0.0746
647.54;	0.0748
647.89;	0.0750
648.25;	0.0752
648.60;	0.0754
648.95;	0.0756
649.30;	0.0758
649.65;	0.0759
650.01;	0.0761
650.36;	0.0763
650.71;	0.0765
651.06;	0.0767
651.41;	0.0769
651.77;	0.0770
652.12;	0.0772
652.47;	0.0774
652.82;	0.0776
653.17;	0.0777
653.53;	0.0779
653.88;	0.0781
654.23;	0.0782
654.58;	0.0784
654.93;	0.0785
655.29;	0.0787
655.64;	0.0789
655.99;	0.0790
656.34;	0.0792
656.69;	0.0793
657.05;	0.0795
657.40;	0.0796
657.75;	0.0798
658.10;	0.0799
658.45;	0.0801
658.81;	0.0802
659.16;	0.0803
659.51;	0.0805
659.86;	0.0806
660.21;	0.0807
660.57;	0.0809
660.92;	0.0810
661.27;	0.0811
661.62;	0.0813
661.97;	0.0814
662.33;	0.0815
662.68;	0.0816
663.03;	0.0817
663.38;	0.0818
663.73;	0.0820
664.09;	0.0821
664.44;	0.0822
664.79;	0.0823
665.14;	0.0824
665.49;	0.0825
665.85;	0.0826
666.20;	0.0827
666.55;	0.0828
666.90;	0.0829
667.25;	0.0830
667.61;	0.0830
667.96;	0.0831
668.31;	0.0832
668.66;	0.0833
669.01;	0.0834
669.37;	0.0835
669.72;	0.0835
670.07;	0.0836
670.42;	0.0837
670.77;	0.0837
671.13;	0.0838
671.48;	0.0839
671.83;	0.0839
672.18;	0.0840
672.53;	0.0841
672.89;	0.0841
673.24;	0.0842
673.59;	0.0842
673.94;	0.0843
674.30;	0.0843
674.65;	0.0843
675.00;	0.0844
675.35;	0.0844
675.70;	0.0845
676.06;	0.0845
676.41;	0.0845
676.76;	0.0846
677.11;	0.0846
677.46;	0.0846
677.82;	0.0846
678.17;	0.0846
678.52;	0.0847
678.87;	0.0847
679.22;	0.0847
679.58;	0.0847
679.93;	0.0847
680.28;	0.0847
680.63;	0.0847
680.98;	0.0847
681.34;	0.0847
681.69;	0.0847
682.04;	0.0847
682.39;	0.0847
682.74;	0.0847
683.10;	0.0847
683.45;	0.0847
683.80;	0.0846
684.15;	0.0846
684.50;	0.0846
684.86;	0.0846
685.21;	0.0846
685.56;	0.0845
685.91;	0.0845
686.26;	0.0845
686.62;	0.0844
686.97;	0.0844
687.32;	0.0843
687.67;	0.0843
688.02;	0.0843
688.38;	0.0842
688.73;	0.0842
689.08;	0.0841
689.43;	0.0841
689.78;	0.0840
690.14;	0.0839
690.49;	0.0839
690.84;	0.0838
691.19;	0.0837
691.54;	0.0837
691.90;	0.0836
692.25;	0.0835
692.60;	0.0835
692.95;	0.0834
693.30;	0.0833
693.66;	0.0832
694.01;	0.0831
694.36;	0.0831
694.71;	0.0830
695.06;	0.0829
695.42;	0.0828
695.77;	0.0827
696.12;	0.0826
696.47;	0.0825
696.82;	0.0824
697.18;	0.0823
697.53;	0.0822
697.88;	0.0821
698.23;	0.0820
698.58;	0.0819
698.94;	0.0817
699.29;	0.0816
699.64;	0.0815
699.99;	0.0814
700.35;	0.0813
700.70;	0.0811
701.05;	0.0810
701.40;	0.0809
701.75;	0.0808
702.11;	0.0806
702.46;	0.0805
702.81;	0.0804
703.16;	0.0802
703.51;	0.0801
703.87;	0.0799
704.22;	0.0798
704.57;	0.0796
704.92;	0.0795
705.27;	0.0793
705.63;	0.0792
705.98;	0.0790
706.33;	0.0789
706.68;	0.0787
707.03;	0.0786
707.39;	0.0784
707.74;	0.0782
708.09;	0.0781
708.44;	0.0779
708.79;	0.0777
709.15;	0.0776
709.50;	0.0774
709.85;	0.0772
710.20;	0.0770
710.55;	0.0769
710.91;	0.0767
711.26;	0.0765
711.61;	0.0763
711.96;	0.0761
712.31;	0.0760
712.67;	0.0758
713.02;	0.0756
713.37;	0.0754
713.72;	0.0752
714.07;	0.0750
714.43;	0.0748
714.78;	0.0746
715.13;	0.0744
715.48;	0.0742
715.83;	0.0740
716.19;	0.0738
716.54;	0.0736
716.89;	0.0734
717.24;	0.0732
717.59;	0.0730
717.95;	0.0728
718.30;	0.0726
718.65;	0.0723
719.00;	0.0721
719.35;	0.0719
719.71;	0.0717
720.06;	0.0715
720.41;	0.0713
720.76;	0.0710
721.11;	0.0708
721.47;	0.0706
721.82;	0.0704
722.17;	0.0701
722.52;	0.0699
722.87;	0.0697
723.23;	0.0695
723.58;	0.0692
723.93;	0.0690
724.28;	0.0688
724.64;	0.0685
724.99;	0.0683
725.34;	0.0681
725.69;	0.0678
726.04;	0.0676
726.40;	0.0673
726.75;	0.0671
727.10;	0.0669
727.45;	0.0666
727.80;	0.0664
728.16;	0.0661
728.51;	0.0659
728.86;	0.0656
729.21;	0.0654
729.56;	0.0652
729.92;	0.0649
730.27;	0.0647
730.62;	0.0644
730.97;	0.0642
731.32;	0.0639
731.68;	0.0636
732.03;	0.0634
732.38;	0.0631
732.73;	0.0629
733.08;	0.0626
733.44;	0.0624
733.79;	0.0621
734.14;	0.0619
734.49;	0.0616
734.84;	0.0613
735.20;	0.0611
735.55;	0.0608
735.90;	0.0606
736.25;	0.0603
736.60;	0.0600
736.96;	0.0598
737.31;	0.0595
737.66;	0.0593
738.01;	0.0590
738.36;	0.0587
738.72;	0.0585
739.07;	0.0582
739.42;	0.0579
739.77;	0.0577
740.12;	0.0574
740.48;	0.0571
740.83;	0.0569
741.18;	0.0566
741.53;	0.0563
741.88;	0.0561
742.24;	0.0558
742.59;	0.0555
742.94;	0.0553
743.29;	0.0550
743.64;	0.0547
744.00;	0.0545
744.35;	0.0542
744.70;	0.0539
745.05;	0.0536
745.40;	0.0534
745.76;	0.0531
746.11;	0.0528
746.46;	0.0526
746.81;	0.0523
747.16;	0.0520
747.52;	0.0518
747.87;	0.0515
748.22;	0.0512
748.57;	0.0509
748.92;	0.0507
749.28;	0.0504
749.63;	0.0501
749.98;	0.0499
750.33;	0.0496
750.69;	0.0493
751.04;	0.0491
751.39;	0.0488
751.74;	0.0485
752.09;	0.0483
752.45;	0.0480
752.80;	0.0477
753.15;	0.0474
753.50;	0.0472
753.85;	0.0469
754.21;	0.0466
754.56;	0.0464
754.91;	0.0461
755.26;	0.0458
755.61;	0.0456
755.97;	0.0453
756.32;	0.0450
756.67;	0.0448
757.02;	0.0445
757.37;	0.0442
757.73;	0.0440
758.08;	0.0437
758.43;	0.0435
758.78;	0.0432
759.13;	0.0429
759.49;	0.0427
759.84;	0.0424
760.19;	0.0421
760.54;	0.0419
760.89;	0.0416
761.25;	0.0414
761.60;	0.0411
761.95;	0.0408
762.30;	0.0406
762.65;	0.0403
763.01;	0.0401
763.36;	0.0398
763.71;	0.0395
764.06;	0.0393
764.41;	0.0390
764.77;	0.0388
765.12;	0.0385
765.47;	0.0383
765.82;	0.0380
766.17;	0.0378
766.53;	0.0375
766.88;	0.0373
767.23;	0.0370
767.58;	0.0368
767.93;	0.0365
768.29;	0.0363
768.64;	0.0360
768.99;	0.0358
769.34;	0.0355
769.69;	0.0353
770.05;	0.0350
770.40;	0.0348
770.75;	0.0345
771.10;	0.0343
771.45;	0.0341
771.81;	0.0338
772.16;	0.0336
772.51;	0.0333
772.86;	0.0331
773.21;	0.0329
773.57;	0.0326
773.92;	0.0324
774.27;	0.0322
774.62;	0.0319
774.97;	0.0317
775.33;	0.0314
775.68;	0.0312
776.03;	0.0310
776.38;	0.0308
776.74;	0.0305
777.09;	0.0303
777.44;	0.0301
777.79;	0.0298
778.14;	0.0296
778.50;	0.0294
778.85;	0.0292
779.20;	0.0289
779.55;	0.0287
779.90;	0.0285
780.26;	0.0283
780.61;	0.0281
780.96;	0.0278
781.31;	0.0276
781.66;	0.0274
782.02;	0.0272
782.37;	0.0270
782.72;	0.0268
783.07;	0.0265
783.42;	0.0263
783.78;	0.0261
784.13;	0.0259
784.48;	0.0257
784.83;	0.0255
785.18;	0.0253
785.54;	0.0251
785.89;	0.0249
786.24;	0.0247
786.59;	0.0245
786.94;	0.0243
787.30;	0.0241
787.65;	0.0239
788.00;	0.0237
