wavelength, nm;	absorption
403.00;	2.0719
403.26;	2.0863
403.51;	2.1007
403.77;	2.1151
404.03;	2.1296
404.29;	2.1440
404.54;	2.1584
404.80;	2.1728
405.06;	2.1872
405.32;	2.2016
405.57;	2.2160
405.83;	2.2304
406.09;	2.2448
406.35;	2.2591
406.60;	2.2735
406.86;	2.2878
407.12;	2.3021
407.38;	2.3164
407.63;	2.3307
407.89;	2.3450
408.15;	2.3593
408.41;	2.3735
408.66;	2.3877
408.92;	2.4019
409.18;	2.4160
409.44;	2.4301
409.69;	2.4442
409.95;	2.4583
410.21;	2.4723
410.47;	2.4863
410.72;	2.5003
410.98;	2.5142
411.24;	2.5281
411.49;	2.5419
411.75;	2.5557
412.01;	2.5695
412.27;	2.5832
412.52;	2.5969
412.78;	2.6105
413.04;	2.6241
413.30;	2.6376
413.55;	2.6510
413.81;	2.6645
414.07;	2.6778
414.33;	2.6911
414.58;	2.7044
414.84;	2.7176
415.10;	2.7307
415.36;	2.7437
415.61;	2.7567
415.87;	2.7697
416.13;	2.7826
416.39;	2.7953
416.64;	2.8081
416.90;	2.8207
417.16;	2.8333
417.42;	2.8458
417.67;	2.8583
417.93;	2.8706
418.19;	2.8829
418.44;	2.8951
418.70;	2.9072
418.96;	2.9192
419.22;	2.9312
419.47;	2.9431
419.73;	2.9548
419.99;	2.9665
420.25;	2.9781
420.50;	2.9896
420.76;	3.0010
421.02;	3.0123
421.28;	3.0236
421.53;	3.0347
421.79;	3.0457
422.05;	3.0566
422.31;	3.0674
422.56;	3.0782
422.82;	3.0888
423.08;	3.0993
423.34;	3.1097
423.59;	3.1200
423.85;	3.1302
424.11;	3.1402
424.37;	3.1502
424.62;	3.1600
424.88;	3.1698
425.14;	3.1794
425.40;	3.1889
425.65;	3.1983
425.91;	3.2075
426.17;	3.2167
426.42;	3.2257
426.68;	3.2346
426.94;	3.2433
427.20;	3.2520
427.45;	3.2605
427.71;	3.2689
427.97;	3.2772
428.23;	3.2853
428.48;	3.2933
428.74;	3.3012
429.00;	3.3089
429.26;	3.3165
429.51;	3.3240
429.77;	3.3313
430.03;	3.3385
430.29;	3.3455
430.54;	3.3525
430.80;	3.3592
431.06;	3.3659
431.32;	3.3724
431.57;	3.3787
431.83;	3.3849
432.09;	3.3910
432.35;	3.3969
432.60;	3.4027
432.86;	3.4083
433.12;	3.4138
433.37;	3.4191
433.63;	3.4243
433.89;	3.4293
434.15;	3.4342
434.40;	3.4390
434.66;	3.4435
434.92;	3.4480
435.18;	3.4522
435.43;	3.4564
435.69;	3.4603
435.95;	3.4642
436.21;	3.4678
436.46;	3.4713
436.72;	3.4747
436.98;	3.4779
437.24;	3.4809
437.49;	3.4838
437.75;	3.4865
438.01;	3.4891
438.27;	3.4915
438.52;	3.4937
438.78;	3.4958
439.04;	3.4977
439.30;	3.4995
439.55;	3.5011
439.81;	3.5025
440.07;	3.5038
440.33;	3.5050
440.58;	3.5059
440.84;	3.5067
441.10;	3.5074
441.35;	3.5079
441.61;	3.5082
441.87;	3.5083
442.13;	3.5083
442.38;	3.5082
442.64;	3.5079
442.90;	3.5074
443.16;	3.5067
443.41;	3.5059
443.67;	3.5050
443.93;	3.5039
444.19;	3.5026
444.44;	3.5011
444.70;	3.4995
444.96;	3.4978
445.22;	3.4958
445.47;	3.4938
445.73;	3.4915
445.99;	3.4891
446.25;	3.4866
446.50;	3.4838
446.76;	3.4810
447.02;	3.4779
447.28;	3.4747
447.53;	3.4714
447.79;	3.4679
448.05;	3.4642
448.30;	3.4604
448.56;	3.4565
448.82;	3.4523
449.08;	3.4481
449.33;	3.4437
449.59;	3.4391
449.85;	3.4343
450.11;	3.4295
450.36;	3.4244
450.62;	3.4193
450.88;	3.4139
451.14;	3.4085
451.39;	3.4028
451.65;	3.3971
451.91;	3.3911
452.17;	3.3851
452.42;	3.3789
452.68;	3.3725
452.94;	3.3660
453.20;	3.3594
453.45;	3.3526
453.71;	3.3457
453.97;	3.3387
454.23;	3.3315
454.48;	3.3241
454.74;	3.3167
455.00;	3.3091
455.26;	3.3014
455.51;	3.2935
455.77;	3.2855
456.03;	3.2774
456.28;	3.2691
456.54;	3.2607
456.80;	3.2522
457.06;	3.2436
457.31;	3.2348
457.57;	3.2259
457.83;	3.2169
458.09;	3.2078
458.34;	3.1985
458.60;	3.1891
458.86;	3.1796
459.12;	3.1700
459.37;	3.1603
459.63;	3.1504
459.89;	3.1405
460.15;	3.1304
460.40;	3.1202
460.66;	3.1100
460.92;	3.0996
461.18;	3.0891
461.43;	3.0784
461.69;	3.0677
461.95;	3.0569
462.21;	3.0460
462.46;	3.0350
462.72;	3.0239
462.98;	3.0126
463.23;	3.0013
463.49;	2.9899
463.75;	2.9784
464.01;	2.9668
464.26;	2.9552
464.52;	2.9434
464.78;	2.9315
465.04;	2.9196
465.29;	2.9076
465.55;	2.8954
465.81;	2.8833
466.07;	2.8710
466.32;	2.8586
466.58;	2.8462
466.84;	2.8337
467.10;	2.8211
467.35;	2.8085
467.61;	2.7957
467.87;	2.7829
468.13;	2.7701
468.38;	2.7571
468.64;	2.7441
468.90;	2.7311
469.16;	2.7180
469.41;	2.7048
469.67;	2.6915
469.93;	2.6782
470.19;	2.6649
470.44;	2.6515
470.70;	2.6380
470.96;	2.6245
471.21;	2.6109
471.47;	2.5973
471.73;	2.5836
471.99;	2.5699
472.24;	2.5562
472.50;	2.5424
472.76;	2.5285
473.02;	2.5146
473.27;	2.5007
473.53;	2.4868
473.79;	2.4728
474.05;	2.4588
474.30;	2.4447
474.56;	2.4306
474.82;	2.4165
475.08;	2.4024
475.33;	2.3882
475.59;	2.3740
475.85;	2.3598
476.11;	2.3455
476.36;	2.3313
476.62;	2.3170
476.88;	2.3027
477.14;	2.2883
477.39;	2.2740
477.65;	2.2597
477.91;	2.2453
478.16;	2.2309
478.42;	2.2166
478.68;	2.2022
478.94;	2.1878
479.19;	2.1734
479.45;	2.1590
479.71;	2.1446
479.97;	2.1301
480.22;	2.1157
480.48;	2.1013
480.74;	2.0869
481.00;	2.0725
481.25;	2.0581
481.51;	2.0437
481.77;	2.0293
482.03;	2.0150
482.28;	2.0006
482.54;	1.9863
482.80;	1.9719
483.06;	1.9576
483.31;	1.9433
483.57;	1.9290
483.83;	1.9147
484.09;	1.9004
484.34;	1.8862
484.60;	1.8720
484.86;	1.8578
485.12;	1.8436
485.37;	1.8295
485.63;	1.8153
485.89;	1.8012
486.14;	1.7872
486.40;	1.7731
486.66;	1.7591
486.92;	1.7452
487.17;	1.7312
487.43;	1.7173
487.69;	1.7034
487.95;	1.6896
488.20;	1.6758
488.46;	1.6620
488.72;	1.6482
488.98;	1.6345
489.23;	1.6209
489.49;	1.6073
489.75;	1.5937
490.01;	1.5802
490.26;	1.5667
490.52;	1.5532
490.78;	1.5398
491.04;	1.5265
491.29;	1.5132
491.55;	1.4999
491.81;	1.4867
492.07;	1.4735
492.32;	1.4604
492.58;	1.4474
492.84;	1.4343
493.09;	1.4214
493.35;	1.4085
493.61;	1.3956
493.87;	1.3828
494.12;	1.3701
494.38;	1.3574
494.64;	1.3448
494.90;	1.3322
495.15;	1.3197
495.41;	1.3072
495.67;	1.2948
495.93;	1.2825
496.18;	1.2702
496.44;	1.2580
496.70;	1.2458
496.96;	1.2337
497.21;	1.2217
497.47;	1.2097
497.73;	1.1978
497.99;	1.1859
498.24;	1.1741
498.50;	1.1624
498.76;	1.1507
499.02;	1.1392
499.27;	1.1276
499.53;	1.1162
499.79;	1.1048
500.05;	1.0934
500.30;	1.0822
500.56;	1.0710
500.82;	1.0599
501.07;	1.0488
501.33;	1.0378
501.59;	1.0269
501.85;	1.0160
502.10;	1.0052
502.36;	0.9945
502.62;	0.9839
502.88;	0.9733
503.13;	0.9628
503.39;	0.9524
503.65;	0.9420
503.91;	0.9317
504.16;	0.9215
504.42;	0.9113
504.68;	0.9012
504.94;	0.8912
505.19;	0.8813
505.45;	0.8714
505.71;	0.8616
505.97;	0.8519
506.22;	0.8423
506.48;	0.8327
506.74;	0.8232
507.00;	0.8137
507.25;	0.8044
507.51;	0.7951
507.77;	0.7858
508.02;	0.7767
508.28;	0.7676
508.54;	0.7586
508.80;	0.7497
509.05;	0.7408
509.31;	0.7320
509.57;	0.7233
509.83;	0.7146
510.08;	0.7061
510.34;	0.6976
510.60;	0.6891
510.86;	0.6808
511.11;	0.6725
511.37;	0.6643
511.63;	0.6561
511.89;	0.6480
512.14;	0.6400
512.40;	0.6321
512.66;	0.6242
512.92;	0.6164
513.17;	0.6087
513.43;	0.6011
513.69;	0.5935
513.95;	0.5860
514.20;	0.5785
514.46;	0.5711
514.72;	0.5638
514.98;	0.5566
515.23;	0.5494
515.49;	0.5423
515.75;	0.5353
516.00;	0.5283
516.26;	0.5214
516.52;	0.5146
516.78;	0.5078
517.03;	0.5011
517.29;	0.4945
517.55;	0.4879
517.81;	0.4814
518.06;	0.4750
518.32;	0.4686
518.58;	0.4623
518.84;	0.4561
519.09;	0.4499
519.35;	0.4438
519.61;	0.4378
519.87;	0.4318
520.12;	0.4259
520.38;	0.4200
520.64;	0.4142
520.90;	0.4085
521.15;	0.4028
521.41;	0.3972
521.67;	0.3917
521.93;	0.3862
522.18;	0.3808
522.44;	0.3754
522.70;	0.3701
522.95;	0.3649
523.21;	0.3597
523.47;	0.3545
523.73;	0.3495
523.98;	0.3445
524.24;	0.3395
524.50;	0.3346
524.76;	0.3298
525.01;	0.3250
525.27;	0.3203
525.53;	0.3156
525.79;	0.3110
526.04;	0.3064
526.30;	0.3019
526.56;	0.2975
526.82;	0.2931
527.07;	0.2887
527.33;	0.2844
527.59;	0.2802
527.85;	0.2760
528.10;	0.2719
528.36;	0.2678
528.62;	0.2637
528.88;	0.2598
529.13;	0.2558
529.39;	0.2519
529.65;	0.2481
529.91;	0.2443
530.16;	0.2406
530.42;	0.2369
530.68;	0.2332
530.93;	0.2296
531.19;	0.2261
531.45;	0.2226
531.71;	0.2191
531.96;	0.2157
532.22;	0.2124
532.48;	0.2090
532.74;	0.2058
532.99;	0.2025
533.25;	0.1993
533.51;	0.1962
533.77;	0.1931
534.02;	0.1900
534.28;	0.1870
534.54;	0.1840
534.80;	0.1811
535.05;	0.1782
535.31;	0.1754
535.57;	0.1725
535.83;	0.1698
536.08;	0.1670
536.34;	0.1643
536.60;	0.1617
536.86;	0.1590
537.11;	0.1565
537.37;	0.1539
537.63;	0.1514
537.88;	0.1489
538.14;	0.1465
538.40;	0.1441
538.66;	0.1417
538.91;	0.1394
539.17;	0.1371
539.43;	0.1348
539.69;	0.1326
539.94;	0.1304
540.20;	0.1282
540.46;	0.1261
540.72;	0.1240
540.97;	0.1219
541.23;	0.1199
541.49;	0.1179
541.75;	0.1159
542.00;	0.1140
542.26;	0.1121
542.52;	0.1102
542.78;	0.1083
543.03;	0.1065
543.29;	0.1047
543.55;	0.1029
543.81;	0.1012
544.06;	0.0995
544.32;	0.0978
544.58;	0.0962
544.84;	0.0945
545.09;	0.0929
545.35;	0.0913
545.61;	0.0898
545.86;	0.0883
546.12;	0.0868
546.38;	0.0853
546.64;	0.0838
546.89;	0.0824
547.15;	0.0810
547.41;	0.0796
547.67;	0.0782
547.92;	0.0769
548.18;	0.0756
548.44;	0.0743
548.70;	0.0730
548.95;	0.0718
549.21;	0.0706
549.47;	0.0694
549.73;	0.0682
549.98;	0.0670
550.24;	0.0659
550.50;	0.0648
550.76;	0.0636
551.01;	0.0626
551.27;	0.0615
551.53;	0.0605
551.79;	0.0594
552.04;	0.0584
552.30;	0.0574
552.56;	0.0565
552.81;	0.0555
553.07;	0.0546
553.33;	0.0536
553.59;	0.0527
553.84;	0.0519
554.10;	0.0510
554.36;	0.0501
554.62;	0.0493
554.87;	0.0485
555.13;	0.0477
555.39;	0.0469
555.65;	0.0461
555.90;	0.0453
556.16;	0.0446
556.42;	0.0439
556.68;	0.0431
556.93;	0.0424
557.19;	0.0418
557.45;	0.0411
557.71;	0.0404
557.96;	0.0398
558.22;	0.0391
558.48;	0.0385
558.74;	0.0379
558.99;	0.0373
559.25;	0.0367
559.51;	0.0361
559.77;	0.0356
560.02;	0.0350
560.28;	0.0345
560.54;	0.0339
560.79;	0.0334
561.05;	0.0329
561.31;	0.0324
561.57;	0.0319
561.82;	0.0315
562.08;	0.0310
562.34;	0.0305
562.60;	0.0301
562.85;	0.0297
563.11;	0.0292
563.37;	0.0288
563.63;	0.0284
563.88;	0.0280
564.14;	0.0276
564.40;	0.0272
564.66;	0.0269
564.91;	0.0265
565.17;	0.0261
565.43;	0.0258
565.69;	0.0255
565.94;	0.0251
566.20;	0.0248
566.46;	0.0245
566.72;	0.0242
566.97;	0.0239
567.23;	0.0236
567.49;	0.0233
567.74;	0.0230
568.00;	0.0227
568.26;	0.0225
568.52;	0.0222
568.77;	0.0220
569.03;	0.0217
569.29;	0.0215
569.55;	0.0212
569.80;	0.0210
570.06;	0.0208
570.32;	0.0206
570.58;	0.0204
570.83;	0.0202
571.09;	0.0200
571.35;	0.0198
571.61;	0.0196
571.86;	0.0194
572.12;	0.0192
572.38;	0.0191
572.64;	0.0189
572.89;	0.0187
573.15;	0.0186
573.41;	0.0184
573.67;	0.0183
573.92;	0.0181
574.18;	0.0180
574.44;	0.0179
574.70;	0.0177
574.95;	0.0176
575.21;	0.0175
575.47;	0.0174
575.72;	0.0173
575.98;	0.0172
576.24;	0.0171
576.50;	0.0170
576.75;	0.0169
577.01;	0.0168
577.27;	0.0167
577.53;	0.0166
577.78;	0.0165
578.04;	0.0164
578.30;	0.0164
578.56;	0.0163
578.81;	0.0162
579.07;	0.0162
579.33;	0.0161
579.59;	0.0160
579.84;	0.0160
580.10;	0.0159
580.36;	0.0159
580.62;	0.0158
580.87;	0.0158
581.13;	0.0157
581.39;	0.0157
581.65;	0.0157
581.90;	0.0156
582.16;	0.0156
582.42;	0.0156
582.67;	0.0155
582.93;	0.0155
583.19;	0.0155
583.45;	0.0155
583.70;	0.0154
583.96;	0.0154
584.22;	0.0154
584.48;	0.0154
584.73;	0.0154
584.99;	0.0154
585.25;	0.0154
585.51;	0.0154
585.76;	0.0154
586.02;	0.0154
586.28;	0.0154
586.54;	0.0154
586.79;	0.0154
587.05;	0.0154
587.31;	0.0154
587.57;	0.0154
587.82;	0.0154
588.08;	0.0154
588.34;	0.0154
588.60;	0.0155
588.85;	0.0155
589.11;	0.0155
589.37;	0.0155
589.63;	0.0155
589.88;	0.0156
590.14;	0.0156
590.40;	0.0156
590.65;	0.0156
590.91;	0.0157
591.17;	0.0157
591.43;	0.0157
591.68;	0.0158
591.94;	0.0158
592.20;	0.0158
592.46;	0.0159
592.71;	0.0159
592.97;	0.0159
593.23;	0.0160
593.49;	0.0160
593.74;	0.0161
594.00;	0.0161
594.26;	0.0162
594.52;	0.0162
594.77;	0.0162
595.03;	0.0163
595.29;	0.0163
595.55;	0.0164
595.80;	0.0164
596.06;	0.0165
596.32;	0.0165
596.58;	0.0166
596.83;	0.0166
597.09;	0.0167
597.35;	0.0167
597.60;	0.0168
597.86;	0.0168
598.12;	0.0169
598.38;	0.0170
598.63;	0.0170
598.89;	0.0171
599.15;	0.0171
599.41;	0.0172
599.66;	0.0172
599.92;	0.0173
600.18;	0.0174
600.44;	0.0174
600.69;	0.0175
600.95;	0.0176
601.21;	0.0176
601.47;	0.0177
601.72;	0.0177
601.98;	0.0178
602.24;	0.0179
602.50;	0.0179
602.75;	0.0180
603.01;	0.0181
603.27;	0.0181
603.53;	0.0182
603.78;	0.0183
604.04;	0.0183
604.30;	0.0184
604.56;	0.0185
604.81;	0.0185
605.07;	0.0186
605.33;	0.0187
605.58;	0.0187
605.84;	0.0188
606.10;	0.0189
606.36;	0.0190
606.61;	0.0190
606.87;	0.0191
607.13;	0.0192
607.39;	0.0192
607.64;	0.0193
607.90;	0.0194
608.16;	0.0195
608.42;	0.0195
608.67;	0.0196
608.93;	0.0197
609.19;	0.0198
609.45;	0.0198
609.70;	0.0199
609.96;	0.0200
610.22;	0.0201
610.48;	0.0201
610.73;	0.0202
610.99;	0.0203
611.25;	0.0204
611.51;	0.0204
611.76;	0.0205
612.02;	0.0206
612.28;	0.0207
612.53;	0.0207
612.79;	0.0208
613.05;	0.0209
613.31;	0.0210
613.56;	0.0210
613.82;	0.0211
614.08;	0.0212
614.34;	0.0213
614.59;	0.0213
614.85;	0.0214
615.11;	0.0215
615.37;	0.0216
615.62;	0.0217
615.88;	0.0217
616.14;	0.0218
616.40;	0.0219
616.65;	0.0220
616.91;	0.0220
617.17;	0.0221
617.43;	0.0222
617.68;	0.0223
617.94;	0.0224
618.20;	0.0224
618.46;	0.0225
618.71;	0.0226
618.97;	0.0227
619.23;	0.0227
619.49;	0.0228
619.74;	0.0229
620.00;	0.0230
620.26;	0.0231
620.51;	0.0231
620.77;	0.0232
621.03;	0.0233
621.29;	0.0234
621.54;	0.0235
621.80;	0.0235
622.06;	0.0236
622.32;	0.0237
622.57;	0.0238
622.83;	0.0238
623.09;	0.0239
623.35;	0.0240
623.60;	0.0241
623.86;	0.0242
624.12;	0.0242
624.38;	0.0243
624.63;	0.0244
624.89;	0.0245
625.15;	0.0245
625.41;	0.0246
625.66;	0.0247
625.92;	0.0248
626.18;	0.0249
626.44;	0.0249
626.69;	0.0250
626.95;	0.0251
627.21;	0.0252
627.47;	0.0252
627.72;	0.0253
627.98;	0.0254
628.24;	0.0255
628.49;	0.0255
628.75;	0.0256
629.01;	0.0257
629.27;	0.0258
629.52;	0.0258
629.78;	0.0259
630.04;	0.0260
630.30;	0.0261
630.55;	0.0261
630.81;	0.0262
631.07;	0.0263
631.33;	0.0264
631.58;	0.0264
631.84;	0.0265
632.10;	0.0266
632.36;	0.0267
632.61;	0.0267
632.87;	0.0268
633.13;	0.0269
633.39;	0.0270
633.64;	0.0270
633.90;	0.0271
634.16;	0.0272
634.42;	0.0273
634.67;	0.0273
634.93;	0.0274
635.19;	0.0275
635.44;	0.0275
635.70;	0.0276
635.96;	0.0277
636.22;	0.0278
636.47;	0.0278
636.73;	0.0279
636.99;	0.0280
637.25;	0.0280
637.50;	0.0281
637.76;	0.0282
638.02;	0.0282
638.28;	0.0283
638.53;	0.0284
638.79;	0.0285
639.05;	0.0285
639.31;	0.0286
639.56;	0.0287
639.82;	0.0287
640.08;	0.0288
640.34;	0.0289
640.59;	0.0289
640.85;	0.0290
641.11;	0.0291
641.37;	0.0291
641.62;	0.0292
641.88;	0.0293
642.14;	0.0293
642.40;	0.0294
642.65;	0.0295
642.91;	0.0295
643.17;	0.0296
643.42;	0.0297
643.68;	0.0297
643.94;	0.0298
644.20;	0.0298
644.45;	0.0299
644.71;	0.0300
644.97;	0.0300
645.23;	0.0301
645.48;	0.0302
645.74;	0.0302
646.00;	0.0303
646.26;	0.0303
646.51;	0.0304
646.77;	0.0305
647.03;	0.0305
647.29;	0.0306
647.54;	0.0306
647.80;	0.0307
648.06;	0.0307
648.32;	0.0308
648.57;	0.0309
648.83;	0.0309
649.09;	0.0310
649.35;	0.0310
649.60;	0.0311
649.86;	0.0311
650.12;	0.0312
650.37;	0.0313
650.63;	0.0313
650.89;	0.0314
651.15;	0.0314
651.40;	0.0315
651.66;	0.0315
651.92;	0.0316
652.18;	0.0316
652.43;	0.0317
652.69;	0.0317
652.95;	0.0318
653.21;	0.0318
653.46;	0.0319
653.72;	0.0319
653.98;	0.0320
654.24;	0.0320
654.49;	0.0321
654.75;	0.0321
655.01;	0.0322
655.27;	0.0322
655.52;	0.0323
655.78;	0.0323
656.04;	0.0324
656.30;	0.0324
656.55;	0.0325
656.81;	0.0325
657.07;	0.0326
657.33;	0.0326
657.58;	0.0326
657.84;	0.0327
658.10;	0.0327
658.35;	0.0328
658.61;	0.0328
658.87;	0.0329
659.13;	0.0329
659.38;	0.0329
659.64;	0.0330
659.90;	0.0330
660.16;	0.0331
660.41;	0.0331
660.67;	0.0331
660.93;	0.0332
661.19;	0.0332
661.44;	0.0332
661.70;	0.0333
661.96;	0.0333
662.22;	0.0334
662.47;	0.0334
662.73;	0.0334
662.99;	0.0335
663.25;	0.0335
663.50;	0.0335
663.76;	0.0336
664.02;	0.0336
664.28;	0.0336
664.53;	0.0337
664.79;	0.0337
665.05;	0.0337
665.30;	0.0338
665.56;	0.0338
665.82;	0.0338
666.08;	0.0338
666.33;	0.0339
666.59;	0.0339
666.85;	0.0339
667.11;	0.0340
667.36;	0.0340
667.62;	0.0340
667.88;	0.0340
668.14;	0.0341
668.39;	0.0341
668.65;	0.0341
668.91;	0.0341
669.17;	0.0342
669.42;	0.0342
669.68;	0.0342
669.94;	0.0342
670.20;	0.0342
670.45;	0.0343
670.71;	0.0343
670.97;	0.0343
671.23;	0.0343
671.48;	0.0343
671.74;	0.0344
672.00;	0.0344
672.26;	0.0344
672.51;	0.0344
672.77;	0.0344
673.03;	0.0345
673.28;	0.0345
673.54;	0.0345
673.80;	0.0345
674.06;	0.0345
674.31;	0.0345
674.57;	0.0345
674.83;	0.0345
675.09;	0.0346
675.34;	0.0346
675.60;	0.0346
675.86;	0.0346
676.12;	0.0346
676.37;	0.0346
676.63;	0.0346
676.89;	0.0346
677.15;	0.0346
677.40;	0.0346
677.66;	0.0347
677.92;	0.0347
678.18;	0.0347
678.43;	0.0347
678.69;	0.0347
678.95;	0.0347
679.21;	0.0347
679.46;	0.0347
679.72;	0.0347
679.98;	0.0347
680.23;	0.0347
680.49;	0.0347
680.75;	0.0347
681.01;	0.0347
681.26;	0.0347
681.52;	0.0347
681.78;	0.0347
682.04;	0.0347
682.29;	0.0347
682.55;	0.0347
682.81;	0.0347
683.07;	0.0347
683.32;	0.0347
683.58;	0.0347
683.84;	0.0347
684.10;	0.0347
684.35;	0.0347
684.61;	0.0346
684.87;	0.0346
685.13;	0.0346
685.38;	0.0346
685.64;	0.0346
685.90;	0.0346
686.16;	0.0346
686.41;	0.0346
686.67;	0.0346
686.93;	0.0346
687.19;	0.0345
687.44;	0.0345
687.70;	0.0345
687.96;	0.0345
688.21;	0.0345
688.47;	0.0345
688.73;	0.0345
688.99;	0.0345
689.24;	0.0344
689.50;	0.0344
689.76;	0.0344
690.02;	0.0344
690.27;	0.0344
690.53;	0.0343
690.79;	0.0343
691.05;	0.0343
691.30;	0.0343
691.56;	0.0343
691.82;	0.0342
692.08;	0.0342
692.33;	0.0342
692.59;	0.0342
692.85;	0.0342
693.11;	0.0341
693.36;	0.0341
693.62;	0.0341
693.88;	0.0341
694.14;	0.0340
694.39;	0.0340
694.65;	0.0340
694.91;	0.0340
695.16;	0.0339
695.42;	0.0339
695.68;	0.0339
695.94;	0.0338
696.19;	0.0338
696.45;	0.0338
696.71;	0.0338
696.97;	0.0337
697.22;	0.0337
697.48;	0.0337
697.74;	0.0336
698.00;	0.0336
698.25;	0.0336
698.51;	0.0335
698.77;	0.0335
699.03;	0.0335
699.28;	0.0334
699.54;	0.0334
699.80;	0.0334
700.06;	0.0333
700.31;	0.0333
700.57;	0.0332
700.83;	0.0332
701.09;	0.0332
701.34;	0.0331
701.60;	0.0331
701.86;	0.0331
702.12;	0.0330
702.37;	0.0330
702.63;	0.0329
702.89;	0.0329
703.14;	0.0329
703.40;	0.0328
703.66;	0.0328
703.92;	0.0327
704.17;	0.0327
704.43;	0.0326
704.69;	0.0326
704.95;	0.0325
705.20;	0.0325
705.46;	0.0325
705.72;	0.0324
705.98;	0.0324
706.23;	0.0323
706.49;	0.0323
706.75;	0.0322
707.01;	0.0322
707.26;	0.0321
707.52;	0.0321
707.78;	0.0320
708.04;	0.0320
708.29;	0.0319
708.55;	0.0319
708.81;	0.0318
709.07;	0.0318
709.32;	0.0317
709.58;	0.0317
709.84;	0.0316
710.09;	0.0316
710.35;	0.0315
710.61;	0.0315
710.87;	0.0314
711.12;	0.0314
711.38;	0.0313
711.64;	0.0313
711.90;	0.0312
712.15;	0.0311
712.41;	0.0311
712.67;	0.0310
712.93;	0.0310
713.18;	0.0309
713.44;	0.0309
713.70;	0.0308
713.96;	0.0307
714.21;	0.0307
714.47;	0.0306
714.73;	0.0306
714.99;	0.0305
715.24;	0.0304
715.50;	0.0304
715.76;	0.0303
716.02;	0.0303
716.27;	0.0302
716.53;	0.0301
716.79;	0.0301
717.05;	0.0300
717.30;	0.0300
717.56;	0.0299
717.82;	0.0298
718.07;	0.0298
718.33;	0.0297
718.59;	0.0296
718.85;	0.0296
719.10;	0.0295
719.36;	0.0295
719.62;	0.0294
719.88;	0.0293
720.13;	0.0293
720.39;	0.0292
720.65;	0.0291
720.91;	0.0291
721.16;	0.0290
721.42;	0.0289
721.68;	0.0289
721.94;	0.0288
722.19;	0.0287
722.45;	0.0287
722.71;	0.0286
722.97;	0.0285
723.22;	0.0284
723.48;	0.0284
723.74;	0.0283
724.00;	0.0282
724.25;	0.0282
724.51;	0.0281
724.77;	0.0280
725.02;	0.0280
725.28;	0.0279
725.54;	0.0278
725.80;	0.0277
726.05;	0.0277
726.31;	0.0276
726.57;	0.0275
726.83;	0.0275
727.08;	0.0274
727.34;	0.0273
727.60;	0.0272
727.86;	0.0272
728.11;	0.0271
728.37;	0.0270
728.63;	0.0269
728.89;	0.0269
729.14;	0.0268
729.40;	0.0267
729.66;	0.0267
729.92;	0.0266
730.17;	0.0265
730.43;	0.0264
730.69;	0.0264
730.95;	0.0263
731.20;	0.0262
731.46;	0.0261
731.72;	0.0261
731.98;	0.0260
732.23;	0.0259
732.49;	0.0258
732.75;	0.0257
733.00;	0.0257
733.26;	0.0256
733.52;	0.0255
733.78;	0.0254
734.03;	0.0254
734.29;	0.0253
734.55;	0.0252
734.81;	0.0251
735.06;	0.0251
735.32;	0.0250
735.58;	0.0249
735.84;	0.0248
736.09;	0.0247
736.35;	0.0247
736.61;	0.0246
736.87;	0.0245
737.12;	0.0244
737.38;	0.0244
737.64;	0.0243
737.90;	0.0242
738.15;	0.0241
738.41;	0.0240
738.67;	0.0240
738.93;	0.0239
739.18;	0.0238
739.44;	0.0237
739.70;	0.0236
739.95;	0.0236
740.21;	0.0235
740.47;	0.0234
740.73;	0.0233
740.98;	0.0232
741.24;	0.0232
741.50;	0.0231
741.76;	0.0230
742.01;	0.0229
742.27;	0.0228
742.53;	0.0228
742.79;	0.0227
743.04;	0.0226
743.30;	0.0225
743.56;	0.0224
743.82;	0.0224
744.07;	0.0223
744.33;	0.0222
744.59;	0.0221
744.85;	0.0220
745.10;	0.0220
745.36;	0.0219
745.62;	0.0218
745.88;	0.0217
746.13;	0.0216
746.39;	0.0216
746.65;	0.0215
746.91;	0.0214
747.16;	0.0213
747.42;	0.0212
747.68;	0.0211
747.93;	0.0211
748.19;	0.0210
748.45;	0.0209
748.71;	0.0208
748.96;	0.0207
749.22;	0.0207
749.48;	0.0206
749.74;	0.0205
749.99;	0.0204
750.25;	0.0203
750.51;	0.0203
750.77;	0.0202
751.02;	0.0201
751.28;	0.0200
751.54;	0.0199
751.80;	0.0199
752.05;	0.0198
752.31;	0.0197
752.57;	0.0196
752.83;	0.0195
753.08;	0.0195
753.34;	0.0194
753.60;	0.0193
753.86;	0.0192
754.11;	0.0191
754.37;	0.0190
754.63;	0.0190
754.88;	0.0189
755.14;	0.0188
755.40;	0.0187
755.66;	0.0186
755.91;	0.0186
756.17;	0.0185
756.43;	0.0184
756.69;	0.0183
756.94;	0.0183
757.20;	0.0182
757.46;	0.0181
757.72;	0.0180
757.97;	0.0179
758.23;	0.0179
758.49;	0.0178
758.75;	0.0177
759.00;	0.0176
759.26;	0.0175
759.52;	0.0175
759.78;	0.0174
760.03;	0.0173
760.29;	0.0172
760.55;	0.0171
760.81;	0.0171
761.06;	0.0170
761.32;	0.0169
761.58;	0.0168
761.84;	0.0168
762.09;	0.0167
762.35;	0.0166
762.61;	0.0165
762.86;	0.0164
763.12;	0.0164
763.38;	0.0163
763.64;	0.0162
763.89;	0.0161
764.15;	0.0161
764.41;	0.0160
764.67;	0.0159
764.92;	0.0158
765.18;	0.0158
765.44;	0.0157
765.70;	0.0156
765.95;	0.0155
766.21;	0.0155
766.47;	0.0154
766.73;	0.0153
766.98;	0.0152
767.24;	0.0152
767.50;	0.0151
767.76;	0.0150
768.01;	0.0149
768.27;	0.0149
768.53;	0.0148
768.79;	0.0147
769.04;	0.0146
769.30;	0.0146
769.56;	0.0145
769.81;	0.0144
770.07;	0.0143
770.33;	0.0143
770.59;	0.0142
770.84;	0.0141
771.10;	0.0140
771.36;	0.0140
771.62;	0.0139
771.87;	0.0138
772.13;	0.0138
772.39;	0.0137
772.65;	0.0136
772.90;	0.0135
773.16;	0.0135
773.42;	0.0134
773.68;	0.0133
773.93;	0.0133
774.19;	0.0132
774.45;	0.0131
774.71;	0.0130
774.96;	0.0130
775.22;	0.0129
775.48;	0.0128
775.74;	0.0128
775.99;	0.0127
776.25;	0.0126
776.51;	0.0126
776.77;	0.0125
777.02;	0.0124
777.28;	0.0124
777.54;	0.0123
777.79;	0.0122
778.05;	0.0122
778.31;	0.0121
778.57;	0.0120
778.82;	0.0120
779.08;	0.0119
779.34;	0.0118
779.60;	0.0117
779.85;	0.0117
780.11;	0.0116
780.37;	0.0116
780.63;	0.0115
780.88;	0.0114
781.14;	0.0114
781.40;	0.0113
781.66;	0.0112
781.91;	0.0112
782.17;	0.0111
782.43;	0.0110
782.69;	0.0110
782.94;	0.0109
783.20;	0.0108
783.46;	0.0108
783.72;	0.0107
783.97;	0.0107
784.23;	0.0106
784.49;	0.0105
784.74;	0.0105
785.00;	0.0104
785.26;	0.0103
785.52;	0.0103
785.77;	0.0102
786.03;	0.0102
786.29;	0.0101
786.55;	0.0100
786.80;	0.0100
787.06;	0.0099
787.32;	0.0099
787.58;	0.0098
787.83;	0.0097
788.09;	0.0097
788.35;	0.0096
788.61;	0.0096
788.86;	0.0095
789.12;	0.0094
789.38;	0.0094
789.64;	0.0093
789.89;	0.0093
790.15;	0.0092
790.41;	0.0091
790.67;	0.0091
790.92;	0.0090
791.18;	0.0090
791.44;	0.0089
791.70;	0.0089
791.95;	0.0088
792.21;	0.0088
792.47;	0.0087
792.72;	0.0086
792.98;	0.0086
793.24;	0.0085
793.50;	0.0085
793.75;	0.0084
794.01;	0.0084
794.27;	0.0083
794.53;	0.0083
794.78;	0.0082
795.04;	0.0082
795.30;	0.0081
795.56;	0.0080
795.81;	0.0080
796.07;	0.0079
796.33;	0.0079
796.59;	0.0078
796.84;	0.0078
797.10;	0.0077
797.36;	0.0077
797.62;	0.0076
797.87;	0.0076
798.13;	0.0075
798.39;	0.0075
798.65;	0.0074
798.90;	0.0074
799.16;	0.0073
799.42;	0.0073
799.67;	0.0072
799.93;	0.0072
800.19;	0.0071
800.45;	0.0071
800.70;	0.0070
800.96;	0.0070
801.22;	0.0069
801.48;	0.0069
801.73;	0.0068
801.99;	0.0068
802.25;	0.0067
802.51;	0.0067
802.76;	0.0067
803.02;	0.0066
803.28;	0.0066
803.54;	0.0065
803.79;	0.0065
804.05;	0.0064
804.31;	0.0064
804.57;	0.0063
804.82;	0.0063
805.08;	0.0062
805.34;	0.0062
805.60;	0.0062
805.85;	0.0061
806.11;	0.0061
806.37;	0.0060
806.63;	0.0060
806.88;	0.0059
807.14;	0.0059
807.40;	0.0059
807.65;	0.0058
807.91;	0.0058
808.17;	0.0057
808.43;	0.0057
808.68;	0.0056
808.94;	0.0056
809.20;	0.0056
809.46;	0.0055
809.71;	0.0055
809.97;	0.0054
810.23;	0.0054
810.49;	0.0054
810.74;	0.0053
811.00;	0.0053
811.26;	0.0052
811.52;	0.0052
811.77;	0.0052
812.03;	0.0051
812.29;	0.0051
812.55;	0.0050
812.80;	0.0050
813.06;	0.0050
813.32;	0.0049
813.58;	0.0049
813.83;	0.0049
814.09;	0.0048
814.35;	0.0048
814.60;	0.0048
814.86;	0.0047
815.12;	0.0047
815.38;	0.0046
815.63;	0.0046
815.89;	0.0046
816.15;	0.0045
816.41;	0.0045
816.66;	0.0045
816.92;	0.0044
817.18;	0.0044
817.44;	0.0044
817.69;	0.0043
817.95;	0.0043
818.21;	0.0043
818.47;	0.0042
818.72;	0.0042
818.98;	0.0042
819.24;	0.0041
819.50;	0.0041
819.75;	0.0041
820.01;	0.0040
820.27;	0.0040
820.53;	0.0040
820.78;	0.0039
821.04;	0.0039
821.30;	0.0039
821.56;	0.0038
821.81;	0.0038
822.07;	0.0038
822.33;	0.0038
822.58;	0.0037
822.84;	0.0037
823.10;	0.0037
823.36;	0.0036
823.61;	0.0036
823.87;	0.0036
824.13;	0.0035
824.39;	0.0035
824.64;	0.0035
824.90;	0.0035
825.16;	0.0034
825.42;	0.0034
825.67;	0.0034
825.93;	0.0033
826.19;	0.0033
826.45;	0.0033
826.70;	0.0033
826.96;	0.0032
827.22;	0.0032
827.48;	0.0032
827.73;	0.0032
827.99;	0.0031
828.25;	0.0031
828.51;	0.0031
828.76;	0.0030
829.02;	0.0030
829.28;	0.0030
829.53;	0.0030
829.79;	0.0029
830.05;	0.0029
830.31;	0.0029
830.56;	0.0029
830.82;	0.0028
831.08;	0.0028
831.34;	0.0028
831.59;	0.0028
831.85;	0.0028
832.11;	0.0027
832.37;	0.0027
832.62;	0.0027
832.88;	0.0027
833.14;	0.0026
833.40;	0.0026
833.65;	0.0026
833.91;	0.0026
834.17;	0.0025
834.43;	0.0025
834.68;	0.0025
834.94;	0.0025
835.20;	0.0025
835.46;	0.0024
835.71;	0.0024
835.97;	0.0024
836.23;	0.0024
836.49;	0.0023
836.74;	0.0023
837.00;	0.0023
