wavelength, nm;	absorption
383.00;	1.0549
383.26;	1.0660
383.52;	1.0772
383.77;	1.0885
384.03;	1.0998
384.29;	1.1112
384.55;	1.1227
384.80;	1.1342
385.06;	1.1458
385.32;	1.1575
385.58;	1.1692
385.83;	1.1810
386.09;	1.1929
386.35;	1.2048
386.61;	1.2168
386.86;	1.2289
387.12;	1.2410
387.38;	1.2532
387.64;	1.2654
387.89;	1.2777
388.15;	1.2901
388.41;	1.3025
388.67;	1.3149
388.92;	1.3275
389.18;	1.3401
389.44;	1.3527
389.70;	1.3654
389.95;	1.3782
390.21;	1.3910
390.47;	1.4039
390.73;	1.4168
390.98;	1.4298
391.24;	1.4428
391.50;	1.4559
391.76;	1.4691
392.01;	1.4823
392.27;	1.4955
392.53;	1.5088
392.79;	1.5221
393.04;	1.5355
393.30;	1.5489
393.56;	1.5624
393.82;	1.5759
394.07;	1.5895
394.33;	1.6031
394.59;	1.6167
394.85;	1.6304
395.10;	1.6442
395.36;	1.6579
395.62;	1.6717
395.88;	1.6856
396.13;	1.6995
396.39;	1.7134
396.65;	1.7273
396.91;	1.7413
397.16;	1.7553
397.42;	1.7694
397.68;	1.7835
397.94;	1.7976
398.19;	1.8117
398.45;	1.8259
398.71;	1.8401
398.97;	1.8543
399.22;	1.8686
399.48;	1.8828
399.74;	1.8971
400.00;	1.9114
400.25;	1.9257
400.51;	1.9401
400.77;	1.9544
401.03;	1.9688
401.28;	1.9832
401.54;	1.9976
401.80;	2.0120
402.06;	2.0265
402.31;	2.0409
402.57;	2.0554
402.83;	2.0698
403.09;	2.0843
403.34;	2.0987
403.60;	2.1132
403.86;	2.1277
404.12;	2.1422
404.37;	2.1566
404.63;	2.1711
404.89;	2.1856
405.15;	2.2000
405.40;	2.2145
405.66;	2.2289
405.92;	2.2434
406.18;	2.2578
406.43;	2.2722
406.69;	2.2866
406.95;	2.3010
407.21;	2.3154
407.46;	2.3298
407.72;	2.3441
407.98;	2.3584
408.24;	2.3727
408.49;	2.3870
408.75;	2.4012
409.01;	2.4155
409.27;	2.4297
409.52;	2.4438
409.78;	2.4580
410.04;	2.4721
410.30;	2.4861
410.55;	2.5002
410.81;	2.5142
411.07;	2.5281
411.33;	2.5421
411.58;	2.5560
411.84;	2.5698
412.10;	2.5836
412.36;	2.5974
412.61;	2.6111
412.87;	2.6247
413.13;	2.6383
413.39;	2.6519
413.64;	2.6654
413.90;	2.6788
414.16;	2.6922
414.42;	2.7056
414.67;	2.7189
414.93;	2.7321
415.19;	2.7452
415.45;	2.7583
415.70;	2.7714
415.96;	2.7843
416.22;	2.7972
416.48;	2.8100
416.73;	2.8228
416.99;	2.8355
417.25;	2.8481
417.51;	2.8606
417.76;	2.8731
418.02;	2.8855
418.28;	2.8978
418.54;	2.9100
418.79;	2.9221
419.05;	2.9342
419.31;	2.9461
419.57;	2.9580
419.82;	2.9698
420.08;	2.9815
420.34;	2.9931
420.60;	3.0046
420.85;	3.0160
421.11;	3.0274
421.37;	3.0386
421.63;	3.0497
421.88;	3.0607
422.14;	3.0717
422.40;	3.0825
422.66;	3.0932
422.91;	3.1038
423.17;	3.1144
423.43;	3.1248
423.69;	3.1351
423.94;	3.1452
424.20;	3.1553
424.46;	3.1653
424.72;	3.1751
424.97;	3.1848
425.23;	3.1944
425.49;	3.2039
425.75;	3.2133
426.00;	3.2226
426.26;	3.2317
426.52;	3.2407
426.78;	3.2496
427.03;	3.2584
427.29;	3.2670
427.55;	3.2755
427.81;	3.2839
428.06;	3.2921
428.32;	3.3002
428.58;	3.3082
428.84;	3.3161
429.09;	3.3238
429.35;	3.3314
429.61;	3.3388
429.87;	3.3461
430.12;	3.3533
430.38;	3.3603
430.64;	3.3672
430.90;	3.3740
431.15;	3.3806
431.41;	3.3870
431.67;	3.3934
431.93;	3.3995
432.18;	3.4056
432.44;	3.4115
432.70;	3.4172
432.96;	3.4228
433.21;	3.4283
433.47;	3.4336
433.73;	3.4387
433.99;	3.4437
434.24;	3.4485
434.50;	3.4532
434.76;	3.4578
435.02;	3.4622
435.27;	3.4664
435.53;	3.4705
435.79;	3.4744
436.05;	3.4782
436.30;	3.4818
436.56;	3.4852
436.82;	3.4886
437.08;	3.4917
437.33;	3.4947
437.59;	3.4975
437.85;	3.5002
438.11;	3.5027
438.36;	3.5050
438.62;	3.5072
438.88;	3.5093
439.14;	3.5111
439.39;	3.5129
439.65;	3.5144
439.91;	3.5158
440.17;	3.5170
440.42;	3.5181
440.68;	3.5190
440.94;	3.5198
441.20;	3.5203
441.45;	3.5208
441.71;	3.5210
441.97;	3.5211
442.23;	3.5211
442.48;	3.5208
442.74;	3.5205
443.00;	3.5199
443.26;	3.5192
443.52;	3.5183
443.77;	3.5173
444.03;	3.5161
444.29;	3.5148
444.55;	3.5132
444.80;	3.5116
445.06;	3.5097
445.32;	3.5077
445.58;	3.5056
445.83;	3.5033
446.09;	3.5008
446.35;	3.4982
446.61;	3.4954
446.86;	3.4924
447.12;	3.4893
447.38;	3.4861
447.64;	3.4826
447.89;	3.4791
448.15;	3.4753
448.41;	3.4714
448.67;	3.4674
448.92;	3.4632
449.18;	3.4588
449.44;	3.4543
449.70;	3.4497
449.95;	3.4449
450.21;	3.4399
450.47;	3.4348
450.73;	3.4295
450.98;	3.4241
451.24;	3.4186
451.50;	3.4129
451.76;	3.4070
452.01;	3.4010
452.27;	3.3949
452.53;	3.3886
452.79;	3.3822
453.04;	3.3756
453.30;	3.3689
453.56;	3.3620
453.82;	3.3550
454.07;	3.3479
454.33;	3.3406
454.59;	3.3332
454.85;	3.3256
455.10;	3.3179
455.36;	3.3101
455.62;	3.3022
455.88;	3.2941
456.13;	3.2859
456.39;	3.2775
456.65;	3.2691
456.91;	3.2605
457.16;	3.2517
457.42;	3.2429
457.68;	3.2339
457.94;	3.2248
458.19;	3.2156
458.45;	3.2062
458.71;	3.1968
458.97;	3.1872
459.22;	3.1775
459.48;	3.1677
459.74;	3.1577
460.00;	3.1477
460.25;	3.1375
460.51;	3.1273
460.77;	3.1169
461.03;	3.1064
461.28;	3.0958
461.54;	3.0851
461.80;	3.0743
462.06;	3.0634
462.31;	3.0524
462.57;	3.0413
462.83;	3.0301
463.09;	3.0188
463.34;	3.0074
463.60;	2.9959
463.86;	2.9843
464.12;	2.9727
464.37;	2.9609
464.63;	2.9490
464.89;	2.9371
465.15;	2.9251
465.40;	2.9130
465.66;	2.9008
465.92;	2.8885
466.18;	2.8761
466.43;	2.8637
466.69;	2.8512
466.95;	2.8386
467.21;	2.8259
467.46;	2.8132
467.72;	2.8004
467.98;	2.7875
468.24;	2.7746
468.49;	2.7615
468.75;	2.7485
469.01;	2.7353
469.27;	2.7221
469.52;	2.7089
469.78;	2.6955
470.04;	2.6822
470.30;	2.6687
470.55;	2.6552
470.81;	2.6417
471.07;	2.6281
471.33;	2.6145
471.58;	2.6008
471.84;	2.5870
472.10;	2.5732
472.36;	2.5594
472.61;	2.5455
472.87;	2.5316
473.13;	2.5177
473.39;	2.5037
473.64;	2.4896
473.90;	2.4756
474.16;	2.4615
474.42;	2.4474
474.67;	2.4332
474.93;	2.4190
475.19;	2.4048
475.45;	2.3906
475.70;	2.3763
475.96;	2.3620
476.22;	2.3477
476.48;	2.3334
476.73;	2.3190
476.99;	2.3046
477.25;	2.2903
477.51;	2.2759
477.76;	2.2614
478.02;	2.2470
478.28;	2.2326
478.54;	2.2181
478.79;	2.2037
479.05;	2.1892
479.31;	2.1748
479.57;	2.1603
479.82;	2.1458
480.08;	2.1314
480.34;	2.1169
480.60;	2.1024
480.85;	2.0880
481.11;	2.0735
481.37;	2.0591
481.63;	2.0446
481.88;	2.0302
482.14;	2.0157
482.40;	2.0013
482.66;	1.9869
482.91;	1.9725
483.17;	1.9581
483.43;	1.9438
483.69;	1.9294
483.94;	1.9151
484.20;	1.9008
484.46;	1.8865
484.72;	1.8722
484.97;	1.8580
485.23;	1.8438
485.49;	1.8296
485.75;	1.8154
486.00;	1.8013
486.26;	1.7872
486.52;	1.7731
486.78;	1.7590
487.03;	1.7450
487.29;	1.7310
487.55;	1.7171
487.81;	1.7031
488.06;	1.6893
488.32;	1.6754
488.58;	1.6616
488.84;	1.6478
489.09;	1.6341
489.35;	1.6204
489.61;	1.6067
489.87;	1.5931
490.12;	1.5796
490.38;	1.5660
490.64;	1.5525
490.90;	1.5391
491.15;	1.5257
491.41;	1.5124
491.67;	1.4991
491.93;	1.4858
492.18;	1.4727
492.44;	1.4595
492.70;	1.4464
492.96;	1.4334
493.21;	1.4204
493.47;	1.4075
493.73;	1.3946
493.99;	1.3817
494.24;	1.3690
494.50;	1.3563
494.76;	1.3436
495.02;	1.3310
495.27;	1.3185
495.53;	1.3060
495.79;	1.2935
496.05;	1.2812
496.30;	1.2689
496.56;	1.2566
496.82;	1.2444
497.08;	1.2323
497.33;	1.2203
497.59;	1.2083
497.85;	1.1963
498.11;	1.1845
498.36;	1.1727
498.62;	1.1609
498.88;	1.1492
499.14;	1.1376
499.39;	1.1261
499.65;	1.1146
499.91;	1.1032
500.17;	1.0919
500.42;	1.0806
500.68;	1.0694
500.94;	1.0582
501.20;	1.0471
501.45;	1.0361
501.71;	1.0252
501.97;	1.0143
502.23;	1.0035
502.48;	0.9928
502.74;	0.9822
503.00;	0.9716
503.26;	0.9611
503.52;	0.9506
503.77;	0.9402
504.03;	0.9299
504.29;	0.9197
504.55;	0.9095
504.80;	0.8994
505.06;	0.8894
505.32;	0.8795
505.58;	0.8696
505.83;	0.8598
506.09;	0.8501
506.35;	0.8404
506.61;	0.8308
506.86;	0.8213
507.12;	0.8119
507.38;	0.8025
507.64;	0.7932
507.89;	0.7840
508.15;	0.7748
508.41;	0.7657
508.67;	0.7567
508.92;	0.7478
509.18;	0.7389
509.44;	0.7301
509.70;	0.7214
509.95;	0.7127
510.21;	0.7042
510.47;	0.6957
510.73;	0.6872
510.98;	0.6789
511.24;	0.6706
511.50;	0.6623
511.76;	0.6542
512.01;	0.6461
512.27;	0.6381
512.53;	0.6302
512.79;	0.6223
513.04;	0.6145
513.30;	0.6068
513.56;	0.5991
513.82;	0.5916
514.07;	0.5840
514.33;	0.5766
514.59;	0.5692
514.85;	0.5619
515.10;	0.5547
515.36;	0.5475
515.62;	0.5404
515.88;	0.5334
516.13;	0.5264
516.39;	0.5195
516.65;	0.5127
516.91;	0.5059
517.16;	0.4992
517.42;	0.4926
517.68;	0.4861
517.94;	0.4796
518.19;	0.4731
518.45;	0.4668
518.71;	0.4605
518.97;	0.4542
519.22;	0.4481
519.48;	0.4420
519.74;	0.4359
520.00;	0.4300
520.25;	0.4240
520.51;	0.4182
520.77;	0.4124
521.03;	0.4067
521.28;	0.4010
521.54;	0.3954
521.80;	0.3899
522.06;	0.3844
522.31;	0.3790
522.57;	0.3736
522.83;	0.3683
523.09;	0.3631
523.34;	0.3579
523.60;	0.3528
523.86;	0.3477
524.12;	0.3427
524.37;	0.3378
524.63;	0.3329
524.89;	0.3280
525.15;	0.3233
525.40;	0.3185
525.66;	0.3139
525.92;	0.3093
526.18;	0.3047
526.43;	0.3002
526.69;	0.2957
526.95;	0.2914
527.21;	0.2870
527.46;	0.2827
527.72;	0.2785
527.98;	0.2743
528.24;	0.2702
528.49;	0.2661
528.75;	0.2621
529.01;	0.2581
529.27;	0.2542
529.52;	0.2503
529.78;	0.2465
530.04;	0.2427
530.30;	0.2389
530.55;	0.2353
530.81;	0.2316
531.07;	0.2280
531.33;	0.2245
531.58;	0.2210
531.84;	0.2175
532.10;	0.2141
532.36;	0.2108
532.61;	0.2074
532.87;	0.2042
533.13;	0.2009
533.39;	0.1978
533.64;	0.1946
533.90;	0.1915
534.16;	0.1885
534.42;	0.1855
534.67;	0.1825
534.93;	0.1795
535.19;	0.1767
535.45;	0.1738
535.70;	0.1710
535.96;	0.1682
536.22;	0.1655
536.48;	0.1628
536.73;	0.1601
536.99;	0.1575
537.25;	0.1549
537.51;	0.1524
537.76;	0.1499
538.02;	0.1474
538.28;	0.1450
538.54;	0.1426
538.79;	0.1402
539.05;	0.1379
539.31;	0.1356
539.57;	0.1333
539.82;	0.1311
540.08;	0.1289
540.34;	0.1267
540.60;	0.1246
540.85;	0.1225
541.11;	0.1205
541.37;	0.1184
541.63;	0.1164
541.88;	0.1144
542.14;	0.1125
542.40;	0.1106
542.66;	0.1087
542.91;	0.1069
543.17;	0.1050
543.43;	0.1032
543.69;	0.1015
543.94;	0.0997
544.20;	0.0980
544.46;	0.0963
544.72;	0.0947
544.97;	0.0931
545.23;	0.0914
545.49;	0.0899
545.75;	0.0883
546.00;	0.0868
546.26;	0.0853
546.52;	0.0838
546.78;	0.0824
547.03;	0.0809
547.29;	0.0795
547.55;	0.0781
547.81;	0.0768
548.06;	0.0754
548.32;	0.0741
548.58;	0.0728
548.84;	0.0716
549.09;	0.0703
549.35;	0.0691
549.61;	0.0679
549.87;	0.0667
550.12;	0.0655
550.38;	0.0644
550.64;	0.0633
550.90;	0.0622
551.15;	0.0611
551.41;	0.0600
551.67;	0.0590
551.93;	0.0579
552.18;	0.0569
552.44;	0.0559
552.70;	0.0550
552.96;	0.0540
553.21;	0.0531
553.47;	0.0521
553.73;	0.0512
553.99;	0.0503
554.24;	0.0495
554.50;	0.0486
554.76;	0.0478
555.02;	0.0469
555.27;	0.0461
555.53;	0.0453
555.79;	0.0446
556.05;	0.0438
556.30;	0.0430
556.56;	0.0423
556.82;	0.0416
557.08;	0.0409
557.33;	0.0402
557.59;	0.0395
557.85;	0.0388
558.11;	0.0382
558.36;	0.0375
558.62;	0.0369
558.88;	0.0363
559.14;	0.0357
559.39;	0.0351
559.65;	0.0345
559.91;	0.0339
560.17;	0.0334
560.42;	0.0328
560.68;	0.0323
560.94;	0.0318
561.20;	0.0313
561.45;	0.0308
561.71;	0.0303
561.97;	0.0298
562.23;	0.0293
562.48;	0.0288
562.74;	0.0284
563.00;	0.0280
563.26;	0.0275
563.52;	0.0271
563.77;	0.0267
564.03;	0.0263
564.29;	0.0259
564.55;	0.0255
564.80;	0.0251
565.06;	0.0247
565.32;	0.0244
565.58;	0.0240
565.83;	0.0237
566.09;	0.0233
566.35;	0.0230
566.61;	0.0227
566.86;	0.0224
567.12;	0.0221
567.38;	0.0218
567.64;	0.0215
567.89;	0.0212
568.15;	0.0209
568.41;	0.0206
568.67;	0.0203
568.92;	0.0201
569.18;	0.0198
569.44;	0.0196
569.70;	0.0193
569.95;	0.0191
570.21;	0.0189
570.47;	0.0187
570.73;	0.0184
570.98;	0.0182
571.24;	0.0180
571.50;	0.0178
571.76;	0.0176
572.01;	0.0174
572.27;	0.0172
572.53;	0.0171
572.79;	0.0169
573.04;	0.0167
573.30;	0.0165
573.56;	0.0164
573.82;	0.0162
574.07;	0.0161
574.33;	0.0159
574.59;	0.0158
574.85;	0.0156
575.10;	0.0155
575.36;	0.0154
575.62;	0.0152
575.88;	0.0151
576.13;	0.0150
576.39;	0.0149
576.65;	0.0148
576.91;	0.0147
577.16;	0.0146
577.42;	0.0145
577.68;	0.0144
577.94;	0.0143
578.19;	0.0142
578.45;	0.0141
578.71;	0.0140
578.97;	0.0139
579.22;	0.0138
579.48;	0.0138
579.74;	0.0137
580.00;	0.0136
580.25;	0.0136
580.51;	0.0135
580.77;	0.0134
581.03;	0.0134
581.28;	0.0133
581.54;	0.0133
581.80;	0.0132
582.06;	0.0132
582.31;	0.0131
582.57;	0.0131
582.83;	0.0131
583.09;	0.0130
583.34;	0.0130
583.60;	0.0129
583.86;	0.0129
584.12;	0.0129
584.37;	0.0129
584.63;	0.0128
584.89;	0.0128
585.15;	0.0128
585.40;	0.0128
585.66;	0.0127
585.92;	0.0127
586.18;	0.0127
586.43;	0.0127
586.69;	0.0127
586.95;	0.0127
587.21;	0.0127
587.46;	0.0127
587.72;	0.0127
587.98;	0.0127
588.24;	0.0127
588.49;	0.0127
588.75;	0.0127
589.01;	0.0127
589.27;	0.0127
589.52;	0.0127
589.78;	0.0127
590.04;	0.0127
590.30;	0.0127
590.55;	0.0127
590.81;	0.0127
591.07;	0.0128
591.33;	0.0128
591.58;	0.0128
591.84;	0.0128
592.10;	0.0128
592.36;	0.0128
592.61;	0.0129
592.87;	0.0129
593.13;	0.0129
593.39;	0.0129
593.64;	0.0130
593.90;	0.0130
594.16;	0.0130
594.42;	0.0130
594.67;	0.0131
594.93;	0.0131
595.19;	0.0131
595.45;	0.0132
595.70;	0.0132
595.96;	0.0132
596.22;	0.0133
596.48;	0.0133
596.73;	0.0133
596.99;	0.0134
597.25;	0.0134
597.51;	0.0134
597.76;	0.0135
598.02;	0.0135
598.28;	0.0136
598.54;	0.0136
598.79;	0.0136
599.05;	0.0137
599.31;	0.0137
599.57;	0.0138
599.82;	0.0138
600.08;	0.0139
600.34;	0.0139
600.60;	0.0139
600.85;	0.0140
601.11;	0.0140
601.37;	0.0141
601.63;	0.0141
601.88;	0.0142
602.14;	0.0142
602.40;	0.0143
602.66;	0.0143
602.91;	0.0144
603.17;	0.0144
603.43;	0.0145
603.69;	0.0145
603.94;	0.0146
604.20;	0.0146
604.46;	0.0147
604.72;	0.0147
604.97;	0.0148
605.23;	0.0148
605.49;	0.0149
605.75;	0.0149
606.00;	0.0150
606.26;	0.0150
606.52;	0.0151
606.78;	0.0152
607.03;	0.0152
607.29;	0.0153
607.55;	0.0153
607.81;	0.0154
608.06;	0.0154
608.32;	0.0155
608.58;	0.0155
608.84;	0.0156
609.09;	0.0157
609.35;	0.0157
609.61;	0.0158
609.87;	0.0158
610.12;	0.0159
610.38;	0.0159
610.64;	0.0160
610.90;	0.0161
611.15;	0.0161
611.41;	0.0162
611.67;	0.0162
611.93;	0.0163
612.18;	0.0164
612.44;	0.0164
612.70;	0.0165
612.96;	0.0165
613.21;	0.0166
613.47;	0.0167
613.73;	0.0167
613.99;	0.0168
614.24;	0.0168
614.50;	0.0169
614.76;	0.0170
615.02;	0.0170
615.27;	0.0171
615.53;	0.0171
615.79;	0.0172
616.05;	0.0173
616.30;	0.0173
616.56;	0.0174
616.82;	0.0174
617.08;	0.0175
617.33;	0.0176
617.59;	0.0176
617.85;	0.0177
618.11;	0.0177
618.36;	0.0178
618.62;	0.0179
618.88;	0.0179
619.14;	0.0180
619.39;	0.0181
619.65;	0.0181
619.91;	0.0182
620.17;	0.0182
620.42;	0.0183
620.68;	0.0184
620.94;	0.0184
621.20;	0.0185
621.45;	0.0185
621.71;	0.0186
621.97;	0.0187
622.23;	0.0187
622.48;	0.0188
622.74;	0.0189
623.00;	0.0189
623.26;	0.0190
623.52;	0.0190
623.77;	0.0191
624.03;	0.0192
624.29;	0.0192
624.55;	0.0193
624.80;	0.0193
625.06;	0.0194
625.32;	0.0195
625.58;	0.0195
625.83;	0.0196
626.09;	0.0196
626.35;	0.0197
626.61;	0.0198
626.86;	0.0198
627.12;	0.0199
627.38;	0.0200
627.64;	0.0200
627.89;	0.0201
628.15;	0.0201
628.41;	0.0202
628.67;	0.0203
628.92;	0.0203
629.18;	0.0204
629.44;	0.0204
629.70;	0.0205
629.95;	0.0206
630.21;	0.0206
630.47;	0.0207
630.73;	0.0207
630.98;	0.0208
631.24;	0.0209
631.50;	0.0209
631.76;	0.0210
632.01;	0.0210
632.27;	0.0211
632.53;	0.0211
632.79;	0.0212
633.04;	0.0213
633.30;	0.0213
633.56;	0.0214
633.82;	0.0214
634.07;	0.0215
634.33;	0.0215
634.59;	0.0216
634.85;	0.0217
635.10;	0.0217
635.36;	0.0218
635.62;	0.0218
635.88;	0.0219
636.13;	0.0219
636.39;	0.0220
636.65;	0.0221
636.91;	0.0221
637.16;	0.0222
637.42;	0.0222
637.68;	0.0223
637.94;	0.0223
638.19;	0.0224
638.45;	0.0224
638.71;	0.0225
638.97;	0.0226
639.22;	0.0226
639.48;	0.0227
639.74;	0.0227
640.00;	0.0228
640.25;	0.0228
640.51;	0.0229
640.77;	0.0229
641.03;	0.0230
641.28;	0.0230
641.54;	0.0231
641.80;	0.0231
642.06;	0.0232
642.31;	0.0232
642.57;	0.0233
642.83;	0.0233
643.09;	0.0234
643.34;	0.0234
643.60;	0.0235
643.86;	0.0235
644.12;	0.0236
644.37;	0.0236
644.63;	0.0237
644.89;	0.0237
645.15;	0.0238
645.40;	0.0238
645.66;	0.0239
645.92;	0.0239
646.18;	0.0240
646.43;	0.0240
646.69;	0.0241
646.95;	0.0241
647.21;	0.0242
647.46;	0.0242
647.72;	0.0243
647.98;	0.0243
648.24;	0.0244
648.49;	0.0244
648.75;	0.0245
649.01;	0.0245
649.27;	0.0245
649.52;	0.0246
649.78;	0.0246
650.04;	0.0247
650.30;	0.0247
650.55;	0.0248
650.81;	0.0248
651.07;	0.0248
651.33;	0.0249
651.58;	0.0249
651.84;	0.0250
652.10;	0.0250
652.36;	0.0251
652.61;	0.0251
652.87;	0.0251
653.13;	0.0252
653.39;	0.0252
653.64;	0.0253
653.90;	0.0253
654.16;	0.0253
654.42;	0.0254
654.67;	0.0254
654.93;	0.0255
655.19;	0.0255
655.45;	0.0255
655.70;	0.0256
655.96;	0.0256
656.22;	0.0256
656.48;	0.0257
656.73;	0.0257
656.99;	0.0257
657.25;	0.0258
657.51;	0.0258
657.76;	0.0259
658.02;	0.0259
658.28;	0.0259
658.54;	0.0260
658.79;	0.0260
659.05;	0.0260
659.31;	0.0261
659.57;	0.0261
659.82;	0.0261
660.08;	0.0261
660.34;	0.0262
660.60;	0.0262
660.85;	0.0262
661.11;	0.0263
661.37;	0.0263
661.63;	0.0263
661.88;	0.0264
662.14;	0.0264
662.40;	0.0264
662.66;	0.0264
662.91;	0.0265
663.17;	0.0265
663.43;	0.0265
663.69;	0.0266
663.94;	0.0266
664.20;	0.0266
664.46;	0.0266
664.72;	0.0267
664.97;	0.0267
665.23;	0.0267
665.49;	0.0267
665.75;	0.0268
666.00;	0.0268
666.26;	0.0268
666.52;	0.0268
666.78;	0.0268
667.03;	0.0269
667.29;	0.0269
667.55;	0.0269
667.81;	0.0269
668.06;	0.0269
668.32;	0.0270
668.58;	0.0270
668.84;	0.0270
669.09;	0.0270
669.35;	0.0270
669.61;	0.0271
669.87;	0.0271
670.12;	0.0271
670.38;	0.0271
670.64;	0.0271
670.90;	0.0271
671.15;	0.0272
671.41;	0.0272
671.67;	0.0272
671.93;	0.0272
672.18;	0.0272
672.44;	0.0272
672.70;	0.0272
672.96;	0.0273
673.21;	0.0273
673.47;	0.0273
673.73;	0.0273
673.99;	0.0273
674.24;	0.0273
674.50;	0.0273
674.76;	0.0273
675.02;	0.0273
675.27;	0.0274
675.53;	0.0274
675.79;	0.0274
676.05;	0.0274
676.30;	0.0274
676.56;	0.0274
676.82;	0.0274
677.08;	0.0274
677.33;	0.0274
677.59;	0.0274
677.85;	0.0274
678.11;	0.0274
678.36;	0.0274
678.62;	0.0274
678.88;	0.0274
679.14;	0.0274
679.39;	0.0274
679.65;	0.0274
679.91;	0.0274
680.17;	0.0275
680.42;	0.0275
680.68;	0.0275
680.94;	0.0275
681.20;	0.0275
681.45;	0.0275
681.71;	0.0275
681.97;	0.0274
682.23;	0.0274
682.48;	0.0274
682.74;	0.0274
683.00;	0.0274
683.26;	0.0274
683.52;	0.0274
683.77;	0.0274
684.03;	0.0274
684.29;	0.0274
684.55;	0.0274
684.80;	0.0274
685.06;	0.0274
685.32;	0.0274
685.58;	0.0274
685.83;	0.0274
686.09;	0.0274
686.35;	0.0274
686.61;	0.0274
686.86;	0.0273
687.12;	0.0273
687.38;	0.0273
687.64;	0.0273
687.89;	0.0273
688.15;	0.0273
688.41;	0.0273
688.67;	0.0273
688.92;	0.0273
689.18;	0.0272
689.44;	0.0272
689.70;	0.0272
689.95;	0.0272
690.21;	0.0272
690.47;	0.0272
690.73;	0.0272
690.98;	0.0271
691.24;	0.0271
691.50;	0.0271
691.76;	0.0271
692.01;	0.0271
692.27;	0.0271
692.53;	0.0270
692.79;	0.0270
693.04;	0.0270
693.30;	0.0270
693.56;	0.0270
693.82;	0.0270
694.07;	0.0269
694.33;	0.0269
694.59;	0.0269
694.85;	0.0269
695.10;	0.0269
695.36;	0.0268
695.62;	0.0268
695.88;	0.0268
696.13;	0.0268
696.39;	0.0267
696.65;	0.0267
696.91;	0.0267
697.16;	0.0267
697.42;	0.0266
697.68;	0.0266
697.94;	0.0266
698.19;	0.0266
698.45;	0.0265
698.71;	0.0265
698.97;	0.0265
699.22;	0.0265
699.48;	0.0264
699.74;	0.0264
700.00;	0.0264
700.25;	0.0263
700.51;	0.0263
700.77;	0.0263
701.03;	0.0263
701.28;	0.0262
701.54;	0.0262
701.80;	0.0262
702.06;	0.0261
702.31;	0.0261
702.57;	0.0261
702.83;	0.0260
703.09;	0.0260
703.34;	0.0260
703.60;	0.0259
703.86;	0.0259
704.12;	0.0259
704.37;	0.0258
704.63;	0.0258
704.89;	0.0258
705.15;	0.0257
705.40;	0.0257
705.66;	0.0257
705.92;	0.0256
706.18;	0.0256
706.43;	0.0255
706.69;	0.0255
706.95;	0.0255
707.21;	0.0254
707.46;	0.0254
707.72;	0.0254
707.98;	0.0253
708.24;	0.0253
708.49;	0.0252
708.75;	0.0252
709.01;	0.0252
709.27;	0.0251
709.52;	0.0251
709.78;	0.0250
710.04;	0.0250
710.30;	0.0249
710.55;	0.0249
710.81;	0.0249
711.07;	0.0248
711.33;	0.0248
711.58;	0.0247
711.84;	0.0247
712.10;	0.0246
712.36;	0.0246
712.61;	0.0246
712.87;	0.0245
713.13;	0.0245
713.39;	0.0244
713.64;	0.0244
713.90;	0.0243
714.16;	0.0243
714.42;	0.0242
714.67;	0.0242
714.93;	0.0241
715.19;	0.0241
715.45;	0.0241
715.70;	0.0240
715.96;	0.0240
716.22;	0.0239
716.48;	0.0239
716.73;	0.0238
716.99;	0.0238
717.25;	0.0237
717.51;	0.0237
717.76;	0.0236
718.02;	0.0236
718.28;	0.0235
718.54;	0.0235
718.79;	0.0234
719.05;	0.0234
719.31;	0.0233
719.57;	0.0233
719.82;	0.0232
720.08;	0.0232
720.34;	0.0231
720.60;	0.0231
720.85;	0.0230
721.11;	0.0229
721.37;	0.0229
721.63;	0.0228
721.88;	0.0228
722.14;	0.0227
722.40;	0.0227
722.66;	0.0226
722.91;	0.0226
723.17;	0.0225
723.43;	0.0225
723.69;	0.0224
723.94;	0.0224
724.20;	0.0223
724.46;	0.0222
724.72;	0.0222
724.97;	0.0221
725.23;	0.0221
725.49;	0.0220
725.75;	0.0220
726.00;	0.0219
726.26;	0.0219
726.52;	0.0218
726.78;	0.0217
727.03;	0.0217
727.29;	0.0216
727.55;	0.0216
727.81;	0.0215
728.06;	0.0215
728.32;	0.0214
728.58;	0.0213
728.84;	0.0213
729.09;	0.0212
729.35;	0.0212
729.61;	0.0211
729.87;	0.0210
730.12;	0.0210
730.38;	0.0209
730.64;	0.0209
730.90;	0.0208
731.15;	0.0207
731.41;	0.0207
731.67;	0.0206
731.93;	0.0206
732.18;	0.0205
732.44;	0.0204
732.70;	0.0204
732.96;	0.0203
733.21;	0.0203
733.47;	0.0202
733.73;	0.0201
733.99;	0.0201
734.24;	0.0200
734.50;	0.0200
734.76;	0.0199
735.02;	0.0198
735.27;	0.0198
735.53;	0.0197
735.79;	0.0197
736.05;	0.0196
736.30;	0.0195
736.56;	0.0195
736.82;	0.0194
737.08;	0.0193
737.33;	0.0193
737.59;	0.0192
737.85;	0.0192
738.11;	0.0191
738.36;	0.0190
738.62;	0.0190
738.88;	0.0189
739.14;	0.0188
739.39;	0.0188
739.65;	0.0187
739.91;	0.0187
740.17;	0.0186
740.42;	0.0185
740.68;	0.0185
740.94;	0.0184
741.20;	0.0183
741.45;	0.0183
741.71;	0.0182
741.97;	0.0181
742.23;	0.0181
742.48;	0.0180
742.74;	0.0180
743.00;	0.0179
743.26;	0.0178
743.52;	0.0178
743.77;	0.0177
744.03;	0.0176
744.29;	0.0176
744.55;	0.0175
744.80;	0.0174
745.06;	0.0174
745.32;	0.0173
745.58;	0.0173
745.83;	0.0172
746.09;	0.0171
746.35;	0.0171
746.61;	0.0170
746.86;	0.0169
747.12;	0.0169
747.38;	0.0168
747.64;	0.0167
747.89;	0.0167
748.15;	0.0166
748.41;	0.0165
748.67;	0.0165
748.92;	0.0164
749.18;	0.0164
749.44;	0.0163
749.70;	0.0162
749.95;	0.0162
750.21;	0.0161
750.47;	0.0160
750.73;	0.0160
750.98;	0.0159
751.24;	0.0158
751.50;	0.0158
751.76;	0.0157
752.01;	0.0157
752.27;	0.0156
752.53;	0.0155
752.79;	0.0155
753.04;	0.0154
753.30;	0.0153
753.56;	0.0153
753.82;	0.0152
754.07;	0.0151
754.33;	0.0151
754.59;	0.0150
754.85;	0.0150
755.10;	0.0149
755.36;	0.0148
755.62;	0.0148
755.88;	0.0147
756.13;	0.0146
756.39;	0.0146
756.65;	0.0145
756.91;	0.0145
757.16;	0.0144
757.42;	0.0143
757.68;	0.0143
757.94;	0.0142
758.19;	0.0141
758.45;	0.0141
758.71;	0.0140
758.97;	0.0139
759.22;	0.0139
759.48;	0.0138
759.74;	0.0138
760.00;	0.0137
760.25;	0.0136
760.51;	0.0136
760.77;	0.0135
761.03;	0.0135
761.28;	0.0134
761.54;	0.0133
761.80;	0.0133
762.06;	0.0132
762.31;	0.0131
762.57;	0.0131
762.83;	0.0130
763.09;	0.0130
763.34;	0.0129
763.60;	0.0128
763.86;	0.0128
764.12;	0.0127
764.37;	0.0127
764.63;	0.0126
764.89;	0.0125
765.15;	0.0125
765.40;	0.0124
765.66;	0.0124
765.92;	0.0123
766.18;	0.0122
766.43;	0.0122
766.69;	0.0121
766.95;	0.0121
767.21;	0.0120
767.46;	0.0119
767.72;	0.0119
767.98;	0.0118
768.24;	0.0118
768.49;	0.0117
768.75;	0.0116
769.01;	0.0116
769.27;	0.0115
769.52;	0.0115
769.78;	0.0114
770.04;	0.0114
770.30;	0.0113
770.55;	0.0112
770.81;	0.0112
771.07;	0.0111
771.33;	0.0111
771.58;	0.0110
771.84;	0.0109
772.10;	0.0109
772.36;	0.0108
772.61;	0.0108
772.87;	0.0107
773.13;	0.0107
773.39;	0.0106
773.64;	0.0106
773.90;	0.0105
774.16;	0.0104
774.42;	0.0104
774.67;	0.0103
774.93;	0.0103
775.19;	0.0102
775.45;	0.0102
775.70;	0.0101
775.96;	0.0101
776.22;	0.0100
776.48;	0.0099
776.73;	0.0099
776.99;	0.0098
777.25;	0.0098
777.51;	0.0097
777.76;	0.0097
778.02;	0.0096
778.28;	0.0096
778.54;	0.0095
778.79;	0.0095
779.05;	0.0094
779.31;	0.0094
779.57;	0.0093
779.82;	0.0093
780.08;	0.0092
780.34;	0.0091
780.60;	0.0091
780.85;	0.0090
781.11;	0.0090
781.37;	0.0089
781.63;	0.0089
781.88;	0.0088
782.14;	0.0088
782.40;	0.0087
782.66;	0.0087
782.91;	0.0086
783.17;	0.0086
783.43;	0.0085
783.69;	0.0085
783.94;	0.0084
784.20;	0.0084
784.46;	0.0083
784.72;	0.0083
784.97;	0.0082
785.23;	0.0082
785.49;	0.0081
785.75;	0.0081
786.00;	0.0080
786.26;	0.0080
786.52;	0.0079
786.78;	0.0079
787.03;	0.0078
787.29;	0.0078
787.55;	0.0078
787.81;	0.0077
788.06;	0.0077
788.32;	0.0076
788.58;	0.0076
788.84;	0.0075
789.09;	0.0075
789.35;	0.0074
789.61;	0.0074
789.87;	0.0073
790.12;	0.0073
790.38;	0.0072
790.64;	0.0072
790.90;	0.0072
791.15;	0.0071
791.41;	0.0071
791.67;	0.0070
791.93;	0.0070
792.18;	0.0069
792.44;	0.0069
792.70;	0.0068
792.96;	0.0068
793.21;	0.0068
793.47;	0.0067
793.73;	0.0067
793.99;	0.0066
794.24;	0.0066
794.50;	0.0065
794.76;	0.0065
795.02;	0.0065
795.27;	0.0064
795.53;	0.0064
795.79;	0.0063
796.05;	0.0063
796.30;	0.0062
796.56;	0.0062
796.82;	0.0062
797.08;	0.0061
797.33;	0.0061
797.59;	0.0060
797.85;	0.0060
798.11;	0.0060
798.36;	0.0059
798.62;	0.0059
798.88;	0.0058
799.14;	0.0058
799.39;	0.0058
799.65;	0.0057
799.91;	0.0057
800.17;	0.0056
800.42;	0.0056
800.68;	0.0056
800.94;	0.0055
801.20;	0.0055
801.45;	0.0055
801.71;	0.0054
801.97;	0.0054
802.23;	0.0053
802.48;	0.0053
802.74;	0.0053
803.00;	0.0052
