wavelength, nm;	absorption
398.00;	1.5644
398.31;	1.5794
398.63;	1.5944
398.94;	1.6095
399.26;	1.6246
399.57;	1.6397
399.89;	1.6549
400.20;	1.6700
400.51;	1.6853
400.83;	1.7005
401.14;	1.7157
401.46;	1.7310
401.77;	1.7463
402.09;	1.7616
402.40;	1.7769
402.71;	1.7922
403.03;	1.8075
403.34;	1.8229
403.66;	1.8382
403.97;	1.8535
404.29;	1.8689
404.60;	1.8842
404.91;	1.8996
405.23;	1.9149
405.54;	1.9302
405.86;	1.9455
406.17;	1.9608
406.49;	1.9761
406.80;	1.9914
407.11;	2.0066
407.43;	2.0218
407.74;	2.0370
408.06;	2.0522
408.37;	2.0674
408.68;	2.0825
409.00;	2.0976
409.31;	2.1126
409.63;	2.1276
409.94;	2.1426
410.26;	2.1575
410.57;	2.1724
410.88;	2.1872
411.20;	2.2020
411.51;	2.2168
411.83;	2.2314
412.14;	2.2461
412.46;	2.2606
412.77;	2.2751
413.08;	2.2896
413.40;	2.3040
413.71;	2.3183
414.03;	2.3325
414.34;	2.3467
414.66;	2.3607
414.97;	2.3748
415.28;	2.3887
415.60;	2.4025
415.91;	2.4163
416.23;	2.4300
416.54;	2.4436
416.86;	2.4571
417.17;	2.4705
417.48;	2.4838
417.80;	2.4970
418.11;	2.5101
418.43;	2.5231
418.74;	2.5360
419.06;	2.5487
419.37;	2.5614
419.68;	2.5740
420.00;	2.5864
420.31;	2.5987
420.63;	2.6110
420.94;	2.6230
421.26;	2.6350
421.57;	2.6468
421.88;	2.6585
422.20;	2.6701
422.51;	2.6816
422.83;	2.6929
423.14;	2.7040
423.46;	2.7151
423.77;	2.7260
424.08;	2.7367
424.40;	2.7473
424.71;	2.7578
425.03;	2.7681
425.34;	2.7782
425.66;	2.7882
425.97;	2.7981
426.28;	2.8077
426.60;	2.8173
426.91;	2.8266
427.23;	2.8358
427.54;	2.8449
427.86;	2.8537
428.17;	2.8624
428.48;	2.8710
428.80;	2.8793
429.11;	2.8875
429.43;	2.8955
429.74;	2.9034
430.05;	2.9110
430.37;	2.9185
430.68;	2.9258
431.00;	2.9330
431.31;	2.9399
431.63;	2.9466
431.94;	2.9532
432.25;	2.9596
432.57;	2.9658
432.88;	2.9718
433.20;	2.9776
433.51;	2.9832
433.83;	2.9886
434.14;	2.9938
434.45;	2.9988
434.77;	3.0037
435.08;	3.0083
435.40;	3.0127
435.71;	3.0170
436.03;	3.0210
436.34;	3.0248
436.65;	3.0285
436.97;	3.0319
437.28;	3.0351
437.60;	3.0381
437.91;	3.0410
438.23;	3.0436
438.54;	3.0460
438.85;	3.0482
439.17;	3.0502
439.48;	3.0519
439.80;	3.0535
440.11;	3.0549
440.43;	3.0560
440.74;	3.0570
441.05;	3.0577
441.37;	3.0583
441.68;	3.0586
442.00;	3.0587
442.31;	3.0586
442.63;	3.0583
442.94;	3.0578
443.25;	3.0571
443.57;	3.0562
443.88;	3.0550
444.20;	3.0537
444.51;	3.0521
444.83;	3.0503
445.14;	3.0484
445.45;	3.0462
445.77;	3.0438
446.08;	3.0412
446.40;	3.0384
446.71;	3.0354
447.03;	3.0322
447.34;	3.0288
447.65;	3.0252
447.97;	3.0214
448.28;	3.0174
448.60;	3.0132
448.91;	3.0088
449.23;	3.0042
449.54;	2.9993
449.85;	2.9943
450.17;	2.9891
450.48;	2.9837
450.80;	2.9782
451.11;	2.9724
451.42;	2.9664
451.74;	2.9602
452.05;	2.9539
452.37;	2.9473
452.68;	2.9406
453.00;	2.9337
453.31;	2.9266
453.62;	2.9193
453.94;	2.9119
454.25;	2.9042
454.57;	2.8964
454.88;	2.8884
455.20;	2.8802
455.51;	2.8719
455.82;	2.8634
456.14;	2.8547
456.45;	2.8459
456.77;	2.8369
457.08;	2.8277
457.40;	2.8183
457.71;	2.8088
458.02;	2.7992
458.34;	2.7894
458.65;	2.7794
458.97;	2.7693
459.28;	2.7590
459.60;	2.7485
459.91;	2.7380
460.22;	2.7272
460.54;	2.7164
460.85;	2.7054
461.17;	2.6942
461.48;	2.6830
461.80;	2.6715
462.11;	2.6600
462.42;	2.6483
462.74;	2.6365
463.05;	2.6246
463.37;	2.6125
463.68;	2.6003
464.00;	2.5880
464.31;	2.5756
464.62;	2.5631
464.94;	2.5504
465.25;	2.5377
465.57;	2.5248
465.88;	2.5119
466.20;	2.4988
466.51;	2.4856
466.82;	2.4723
467.14;	2.4590
467.45;	2.4455
467.77;	2.4319
468.08;	2.4183
468.40;	2.4046
468.71;	2.3908
469.02;	2.3769
469.34;	2.3629
469.65;	2.3488
469.97;	2.3347
470.28;	2.3205
470.60;	2.3062
470.91;	2.2919
471.22;	2.2775
471.54;	2.2630
471.85;	2.2485
472.17;	2.2339
472.48;	2.2192
472.79;	2.2045
473.11;	2.1898
473.42;	2.1750
473.74;	2.1601
474.05;	2.1452
474.37;	2.1303
474.68;	2.1153
474.99;	2.1003
475.31;	2.0853
475.62;	2.0702
475.94;	2.0551
476.25;	2.0400
476.57;	2.0248
476.88;	2.0096
477.19;	1.9944
477.51;	1.9792
477.82;	1.9640
478.14;	1.9487
478.45;	1.9334
478.77;	1.9182
479.08;	1.9029
479.39;	1.8876
479.71;	1.8723
480.02;	1.8570
480.34;	1.8417
480.65;	1.8264
480.97;	1.8111
481.28;	1.7958
481.59;	1.7806
481.91;	1.7653
482.22;	1.7501
482.54;	1.7348
482.85;	1.7196
483.17;	1.7044
483.48;	1.6893
483.79;	1.6741
484.11;	1.6590
484.42;	1.6439
484.74;	1.6288
485.05;	1.6138
485.37;	1.5987
485.68;	1.5838
485.99;	1.5688
486.31;	1.5539
486.62;	1.5391
486.94;	1.5242
487.25;	1.5094
487.57;	1.4947
487.88;	1.4800
488.19;	1.4654
488.51;	1.4508
488.82;	1.4362
489.14;	1.4217
489.45;	1.4073
489.77;	1.3929
490.08;	1.3786
490.39;	1.3643
490.71;	1.3501
491.02;	1.3359
491.34;	1.3218
491.65;	1.3078
491.97;	1.2938
492.28;	1.2799
492.59;	1.2661
492.91;	1.2523
493.22;	1.2386
493.54;	1.2249
493.85;	1.2114
494.16;	1.1979
494.48;	1.1845
494.79;	1.1711
495.11;	1.1579
495.42;	1.1447
495.74;	1.1316
496.05;	1.1185
496.36;	1.1056
496.68;	1.0927
496.99;	1.0799
497.31;	1.0672
497.62;	1.0545
497.94;	1.0420
498.25;	1.0295
498.56;	1.0171
498.88;	1.0048
499.19;	0.9926
499.51;	0.9805
499.82;	0.9684
500.14;	0.9565
500.45;	0.9446
500.76;	0.9328
501.08;	0.9211
501.39;	0.9096
501.71;	0.8980
502.02;	0.8866
502.34;	0.8753
502.65;	0.8641
502.96;	0.8529
503.28;	0.8419
503.59;	0.8309
503.91;	0.8200
504.22;	0.8093
504.54;	0.7986
504.85;	0.7880
505.16;	0.7775
505.48;	0.7671
505.79;	0.7568
506.11;	0.7466
506.42;	0.7365
506.74;	0.7264
507.05;	0.7165
507.36;	0.7067
507.68;	0.6969
507.99;	0.6873
508.31;	0.6778
508.62;	0.6683
508.94;	0.6589
509.25;	0.6497
509.56;	0.6405
509.88;	0.6314
510.19;	0.6224
510.51;	0.6135
510.82;	0.6048
511.14;	0.5960
511.45;	0.5874
511.76;	0.5789
512.08;	0.5705
512.39;	0.5622
512.71;	0.5539
513.02;	0.5458
513.34;	0.5378
513.65;	0.5298
513.96;	0.5219
514.28;	0.5142
514.59;	0.5065
514.91;	0.4989
515.22;	0.4914
515.53;	0.4840
515.85;	0.4766
516.16;	0.4694
516.48;	0.4623
516.79;	0.4552
517.11;	0.4483
517.42;	0.4414
517.73;	0.4346
518.05;	0.4279
518.36;	0.4213
518.68;	0.4147
518.99;	0.4083
519.31;	0.4019
519.62;	0.3956
519.93;	0.3895
520.25;	0.3833
520.56;	0.3773
520.88;	0.3714
521.19;	0.3655
521.51;	0.3597
521.82;	0.3540
522.13;	0.3484
522.45;	0.3429
522.76;	0.3374
523.08;	0.3320
523.39;	0.3267
523.71;	0.3215
524.02;	0.3164
524.33;	0.3113
524.65;	0.3063
524.96;	0.3014
525.28;	0.2965
525.59;	0.2918
525.91;	0.2871
526.22;	0.2824
526.53;	0.2779
526.85;	0.2734
527.16;	0.2690
527.48;	0.2646
527.79;	0.2604
528.11;	0.2562
528.42;	0.2520
528.73;	0.2480
529.05;	0.2440
529.36;	0.2400
529.68;	0.2362
529.99;	0.2324
530.31;	0.2286
530.62;	0.2250
530.93;	0.2213
531.25;	0.2178
531.56;	0.2143
531.88;	0.2109
532.19;	0.2075
532.51;	0.2042
532.82;	0.2010
533.13;	0.1978
533.45;	0.1947
533.76;	0.1916
534.08;	0.1886
534.39;	0.1856
534.71;	0.1827
535.02;	0.1799
535.33;	0.1771
535.65;	0.1743
535.96;	0.1717
536.28;	0.1690
536.59;	0.1664
536.90;	0.1639
537.22;	0.1614
537.53;	0.1590
537.85;	0.1566
538.16;	0.1543
538.48;	0.1520
538.79;	0.1498
539.10;	0.1476
539.42;	0.1455
539.73;	0.1434
540.05;	0.1413
540.36;	0.1393
540.68;	0.1374
540.99;	0.1354
541.30;	0.1336
541.62;	0.1317
541.93;	0.1300
542.25;	0.1282
542.56;	0.1265
542.88;	0.1248
543.19;	0.1232
543.50;	0.1216
543.82;	0.1201
544.13;	0.1186
544.45;	0.1171
544.76;	0.1157
545.08;	0.1143
545.39;	0.1129
545.70;	0.1116
546.02;	0.1103
546.33;	0.1090
546.65;	0.1078
546.96;	0.1066
547.28;	0.1055
547.59;	0.1043
547.90;	0.1032
548.22;	0.1022
548.53;	0.1012
548.85;	0.1002
549.16;	0.0992
549.48;	0.0983
549.79;	0.0974
550.10;	0.0965
550.42;	0.0956
550.73;	0.0948
551.05;	0.0940
551.36;	0.0932
551.68;	0.0925
551.99;	0.0918
552.30;	0.0911
552.62;	0.0904
552.93;	0.0898
553.25;	0.0892
553.56;	0.0886
553.88;	0.0880
554.19;	0.0875
554.50;	0.0870
554.82;	0.0865
555.13;	0.0860
555.45;	0.0856
555.76;	0.0852
556.08;	0.0848
556.39;	0.0844
556.70;	0.0840
557.02;	0.0837
557.33;	0.0834
557.65;	0.0831
557.96;	0.0828
558.27;	0.0825
558.59;	0.0823
558.90;	0.0820
559.22;	0.0818
559.53;	0.0817
559.85;	0.0815
560.16;	0.0813
560.47;	0.0812
560.79;	0.0811
561.10;	0.0810
561.42;	0.0809
561.73;	0.0808
562.05;	0.0808
562.36;	0.0807
562.67;	0.0807
562.99;	0.0807
563.30;	0.0807
563.62;	0.0807
563.93;	0.0808
564.25;	0.0808
564.56;	0.0809
564.87;	0.0810
565.19;	0.0811
565.50;	0.0812
565.82;	0.0813
566.13;	0.0814
566.45;	0.0816
566.76;	0.0817
567.07;	0.0819
567.39;	0.0821
567.70;	0.0823
568.02;	0.0825
568.33;	0.0827
568.65;	0.0829
568.96;	0.0832
569.27;	0.0834
569.59;	0.0837
569.90;	0.0839
570.22;	0.0842
570.53;	0.0845
570.85;	0.0848
571.16;	0.0851
571.47;	0.0854
571.79;	0.0858
572.10;	0.0861
572.42;	0.0865
572.73;	0.0868
573.05;	0.0872
573.36;	0.0876
573.67;	0.0879
573.99;	0.0883
574.30;	0.0887
574.62;	0.0891
574.93;	0.0896
575.25;	0.0900
575.56;	0.0904
575.87;	0.0908
576.19;	0.0913
576.50;	0.0917
576.82;	0.0922
577.13;	0.0927
577.45;	0.0932
577.76;	0.0936
578.07;	0.0941
578.39;	0.0946
578.70;	0.0951
579.02;	0.0956
579.33;	0.0962
579.64;	0.0967
579.96;	0.0972
580.27;	0.0977
580.59;	0.0983
580.90;	0.0988
581.22;	0.0994
581.53;	0.0999
581.84;	0.1005
582.16;	0.1011
582.47;	0.1016
582.79;	0.1022
583.10;	0.1028
583.42;	0.1034
583.73;	0.1040
584.04;	0.1046
584.36;	0.1052
584.67;	0.1058
584.99;	0.1064
585.30;	0.1071
585.62;	0.1077
585.93;	0.1083
586.24;	0.1089
586.56;	0.1096
586.87;	0.1102
587.19;	0.1109
587.50;	0.1115
587.82;	0.1122
588.13;	0.1128
588.44;	0.1135
588.76;	0.1142
589.07;	0.1148
589.39;	0.1155
589.70;	0.1162
590.02;	0.1169
590.33;	0.1176
590.64;	0.1183
590.96;	0.1189
591.27;	0.1196
591.59;	0.1203
591.90;	0.1210
592.22;	0.1218
592.53;	0.1225
592.84;	0.1232
593.16;	0.1239
593.47;	0.1246
593.79;	0.1253
594.10;	0.1261
594.42;	0.1268
594.73;	0.1275
595.04;	0.1283
595.36;	0.1290
595.67;	0.1297
595.99;	0.1305
596.30;	0.1312
596.62;	0.1320
596.93;	0.1327
597.24;	0.1335
597.56;	0.1342
597.87;	0.1350
598.19;	0.1357
598.50;	0.1365
598.82;	0.1373
599.13;	0.1380
599.44;	0.1388
599.76;	0.1396
600.07;	0.1403
600.39;	0.1411
600.70;	0.1419
601.01;	0.1427
601.33;	0.1435
601.64;	0.1442
601.96;	0.1450
602.27;	0.1458
602.59;	0.1466
602.90;	0.1474
603.21;	0.1482
603.53;	0.1490
603.84;	0.1498
604.16;	0.1506
604.47;	0.1514
604.79;	0.1522
605.10;	0.1530
605.41;	0.1538
605.73;	0.1546
606.04;	0.1554
606.36;	0.1562
606.67;	0.1570
606.99;	0.1578
607.30;	0.1586
607.61;	0.1594
607.93;	0.1602
608.24;	0.1610
608.56;	0.1618
608.87;	0.1626
609.19;	0.1635
609.50;	0.1643
609.81;	0.1651
610.13;	0.1659
610.44;	0.1667
610.76;	0.1675
611.07;	0.1684
611.39;	0.1692
611.70;	0.1700
612.01;	0.1708
612.33;	0.1716
612.64;	0.1724
612.96;	0.1733
613.27;	0.1741
613.59;	0.1749
613.90;	0.1757
614.21;	0.1765
614.53;	0.1774
614.84;	0.1782
615.16;	0.1790
615.47;	0.1798
615.79;	0.1807
616.10;	0.1815
616.41;	0.1823
616.73;	0.1831
617.04;	0.1839
617.36;	0.1848
617.67;	0.1856
617.99;	0.1864
618.30;	0.1872
618.61;	0.1880
618.93;	0.1889
619.24;	0.1897
619.56;	0.1905
619.87;	0.1913
620.18;	0.1921
620.50;	0.1929
620.81;	0.1937
621.13;	0.1946
621.44;	0.1954
621.76;	0.1962
622.07;	0.1970
622.38;	0.1978
622.70;	0.1986
623.01;	0.1994
623.33;	0.2002
623.64;	0.2010
623.96;	0.2018
624.27;	0.2027
624.58;	0.2035
624.90;	0.2043
625.21;	0.2051
625.53;	0.2059
625.84;	0.2067
626.16;	0.2074
626.47;	0.2082
626.78;	0.2090
627.10;	0.2098
627.41;	0.2106
627.73;	0.2114
628.04;	0.2122
628.36;	0.2130
628.67;	0.2138
628.98;	0.2145
629.30;	0.2153
629.61;	0.2161
629.93;	0.2169
630.24;	0.2177
630.56;	0.2184
630.87;	0.2192
631.18;	0.2200
631.50;	0.2207
631.81;	0.2215
632.13;	0.2222
632.44;	0.2230
632.76;	0.2238
633.07;	0.2245
633.38;	0.2253
633.70;	0.2260
634.01;	0.2268
634.33;	0.2275
634.64;	0.2283
634.96;	0.2290
635.27;	0.2297
635.58;	0.2305
635.90;	0.2312
636.21;	0.2319
636.53;	0.2326
636.84;	0.2334
637.16;	0.2341
637.47;	0.2348
637.78;	0.2355
638.10;	0.2362
638.41;	0.2369
638.73;	0.2376
639.04;	0.2383
639.36;	0.2390
639.67;	0.2397
639.98;	0.2404
640.30;	0.2411
640.61;	0.2418
640.93;	0.2425
641.24;	0.2432
641.55;	0.2438
641.87;	0.2445
642.18;	0.2452
642.50;	0.2458
642.81;	0.2465
643.13;	0.2472
643.44;	0.2478
643.75;	0.2485
644.07;	0.2491
644.38;	0.2498
644.70;	0.2504
645.01;	0.2510
645.33;	0.2517
645.64;	0.2523
645.95;	0.2529
646.27;	0.2535
646.58;	0.2541
646.90;	0.2547
647.21;	0.2554
647.53;	0.2560
647.84;	0.2566
648.15;	0.2571
648.47;	0.2577
648.78;	0.2583
649.10;	0.2589
649.41;	0.2595
649.73;	0.2600
650.04;	0.2606
650.35;	0.2612
650.67;	0.2617
650.98;	0.2623
651.30;	0.2628
651.61;	0.2634
651.93;	0.2639
652.24;	0.2645
652.55;	0.2650
652.87;	0.2655
653.18;	0.2660
653.50;	0.2665
653.81;	0.2671
654.13;	0.2676
654.44;	0.2681
654.75;	0.2686
655.07;	0.2691
655.38;	0.2695
655.70;	0.2700
656.01;	0.2705
656.33;	0.2710
656.64;	0.2714
656.95;	0.2719
657.27;	0.2723
657.58;	0.2728
657.90;	0.2732
658.21;	0.2737
658.53;	0.2741
658.84;	0.2745
659.15;	0.2750
659.47;	0.2754
659.78;	0.2758
660.10;	0.2762
660.41;	0.2766
660.73;	0.2770
661.04;	0.2774
661.35;	0.2778
661.67;	0.2782
661.98;	0.2785
662.30;	0.2789
662.61;	0.2793
662.92;	0.2796
663.24;	0.2800
663.55;	0.2803
663.87;	0.2806
664.18;	0.2810
664.50;	0.2813
664.81;	0.2816
665.12;	0.2819
665.44;	0.2823
665.75;	0.2826
666.07;	0.2829
666.38;	0.2832
666.70;	0.2834
667.01;	0.2837
667.32;	0.2840
667.64;	0.2843
667.95;	0.2845
668.27;	0.2848
668.58;	0.2850
668.90;	0.2853
669.21;	0.2855
669.52;	0.2858
669.84;	0.2860
670.15;	0.2862
670.47;	0.2864
670.78;	0.2866
671.10;	0.2868
671.41;	0.2870
671.72;	0.2872
672.04;	0.2874
672.35;	0.2876
672.67;	0.2877
672.98;	0.2879
673.30;	0.2881
673.61;	0.2882
673.92;	0.2884
674.24;	0.2885
674.55;	0.2886
674.87;	0.2888
675.18;	0.2889
675.50;	0.2890
675.81;	0.2891
676.12;	0.2892
676.44;	0.2893
676.75;	0.2894
677.07;	0.2895
677.38;	0.2896
677.70;	0.2896
678.01;	0.2897
678.32;	0.2897
678.64;	0.2898
678.95;	0.2898
679.27;	0.2899
679.58;	0.2899
679.90;	0.2899
680.21;	0.2900
680.52;	0.2900
680.84;	0.2900
681.15;	0.2900
681.47;	0.2900
681.78;	0.2900
682.10;	0.2899
682.41;	0.2899
682.72;	0.2899
683.04;	0.2898
683.35;	0.2898
683.67;	0.2897
683.98;	0.2897
684.29;	0.2896
684.61;	0.2896
684.92;	0.2895
685.24;	0.2894
685.55;	0.2893
685.87;	0.2892
686.18;	0.2891
686.49;	0.2890
686.81;	0.2889
687.12;	0.2888
687.44;	0.2886
687.75;	0.2885
688.07;	0.2884
688.38;	0.2882
688.69;	0.2881
689.01;	0.2879
689.32;	0.2877
689.64;	0.2876
689.95;	0.2874
690.27;	0.2872
690.58;	0.2870
690.89;	0.2868
691.21;	0.2866
691.52;	0.2864
691.84;	0.2862
692.15;	0.2860
692.47;	0.2858
692.78;	0.2855
693.09;	0.2853
693.41;	0.2850
693.72;	0.2848
694.04;	0.2845
694.35;	0.2843
694.67;	0.2840
694.98;	0.2837
695.29;	0.2835
695.61;	0.2832
695.92;	0.2829
696.24;	0.2826
696.55;	0.2823
696.87;	0.2820
697.18;	0.2816
697.49;	0.2813
697.81;	0.2810
698.12;	0.2807
698.44;	0.2803
698.75;	0.2800
699.07;	0.2796
699.38;	0.2793
699.69;	0.2789
700.01;	0.2785
700.32;	0.2782
700.64;	0.2778
700.95;	0.2774
701.27;	0.2770
701.58;	0.2766
701.89;	0.2762
702.21;	0.2758
702.52;	0.2754
702.84;	0.2750
703.15;	0.2746
703.47;	0.2741
703.78;	0.2737
704.09;	0.2733
704.41;	0.2728
704.72;	0.2724
705.04;	0.2719
705.35;	0.2714
705.66;	0.2710
705.98;	0.2705
706.29;	0.2700
706.61;	0.2696
706.92;	0.2691
707.24;	0.2686
707.55;	0.2681
707.86;	0.2676
708.18;	0.2671
708.49;	0.2666
708.81;	0.2660
709.12;	0.2655
709.44;	0.2650
709.75;	0.2645
710.06;	0.2639
710.38;	0.2634
710.69;	0.2629
711.01;	0.2623
711.32;	0.2618
711.64;	0.2612
711.95;	0.2606
712.26;	0.2601
712.58;	0.2595
712.89;	0.2589
713.21;	0.2583
713.52;	0.2578
713.84;	0.2572
714.15;	0.2566
714.46;	0.2560
714.78;	0.2554
715.09;	0.2548
715.41;	0.2542
715.72;	0.2535
716.04;	0.2529
716.35;	0.2523
716.66;	0.2517
716.98;	0.2510
717.29;	0.2504
717.61;	0.2498
717.92;	0.2491
718.24;	0.2485
718.55;	0.2478
718.86;	0.2472
719.18;	0.2465
719.49;	0.2459
719.81;	0.2452
720.12;	0.2445
720.44;	0.2439
720.75;	0.2432
721.06;	0.2425
721.38;	0.2418
721.69;	0.2411
722.01;	0.2404
722.32;	0.2398
722.64;	0.2391
722.95;	0.2384
723.26;	0.2377
723.58;	0.2370
723.89;	0.2362
724.21;	0.2355
724.52;	0.2348
724.84;	0.2341
725.15;	0.2334
725.46;	0.2327
725.78;	0.2319
726.09;	0.2312
726.41;	0.2305
726.72;	0.2297
727.03;	0.2290
727.35;	0.2283
727.66;	0.2275
727.98;	0.2268
728.29;	0.2260
728.61;	0.2253
728.92;	0.2245
729.23;	0.2238
729.55;	0.2230
729.86;	0.2223
730.18;	0.2215
730.49;	0.2207
730.81;	0.2200
731.12;	0.2192
731.43;	0.2184
731.75;	0.2177
732.06;	0.2169
732.38;	0.2161
732.69;	0.2153
733.01;	0.2146
733.32;	0.2138
733.63;	0.2130
733.95;	0.2122
734.26;	0.2114
734.58;	0.2106
734.89;	0.2098
735.21;	0.2090
735.52;	0.2082
735.83;	0.2075
736.15;	0.2067
736.46;	0.2059
736.78;	0.2051
737.09;	0.2043
737.41;	0.2035
737.72;	0.2026
738.03;	0.2018
738.35;	0.2010
738.66;	0.2002
738.98;	0.1994
739.29;	0.1986
739.61;	0.1978
739.92;	0.1970
740.23;	0.1962
740.55;	0.1954
740.86;	0.1945
741.18;	0.1937
741.49;	0.1929
741.81;	0.1921
742.12;	0.1913
742.43;	0.1905
742.75;	0.1896
743.06;	0.1888
743.38;	0.1880
743.69;	0.1872
744.01;	0.1864
744.32;	0.1855
744.63;	0.1847
744.95;	0.1839
745.26;	0.1831
745.58;	0.1822
745.89;	0.1814
746.21;	0.1806
746.52;	0.1798
746.83;	0.1789
747.15;	0.1781
747.46;	0.1773
747.78;	0.1765
748.09;	0.1756
748.40;	0.1748
748.72;	0.1740
749.03;	0.1732
749.35;	0.1723
749.66;	0.1715
749.98;	0.1707
750.29;	0.1699
750.60;	0.1690
750.92;	0.1682
751.23;	0.1674
751.55;	0.1666
751.86;	0.1658
752.18;	0.1649
752.49;	0.1641
752.80;	0.1633
753.12;	0.1625
753.43;	0.1616
753.75;	0.1608
754.06;	0.1600
754.38;	0.1592
754.69;	0.1584
755.00;	0.1576
755.32;	0.1567
755.63;	0.1559
755.95;	0.1551
756.26;	0.1543
756.58;	0.1535
756.89;	0.1527
757.20;	0.1519
757.52;	0.1511
757.83;	0.1502
758.15;	0.1494
758.46;	0.1486
758.78;	0.1478
759.09;	0.1470
759.40;	0.1462
759.72;	0.1454
760.03;	0.1446
760.35;	0.1438
760.66;	0.1430
760.98;	0.1422
761.29;	0.1414
761.60;	0.1406
761.92;	0.1398
762.23;	0.1390
762.55;	0.1383
762.86;	0.1375
763.18;	0.1367
763.49;	0.1359
763.80;	0.1351
764.12;	0.1343
764.43;	0.1335
764.75;	0.1328
765.06;	0.1320
765.38;	0.1312
765.69;	0.1304
766.00;	0.1297
766.32;	0.1289
766.63;	0.1281
766.95;	0.1274
767.26;	0.1266
767.58;	0.1258
767.89;	0.1251
768.20;	0.1243
768.52;	0.1236
768.83;	0.1228
769.15;	0.1220
769.46;	0.1213
769.77;	0.1205
770.09;	0.1198
770.40;	0.1190
770.72;	0.1183
771.03;	0.1176
771.35;	0.1168
771.66;	0.1161
771.97;	0.1153
772.29;	0.1146
772.60;	0.1139
772.92;	0.1132
773.23;	0.1124
773.55;	0.1117
773.86;	0.1110
774.17;	0.1103
774.49;	0.1095
774.80;	0.1088
775.12;	0.1081
775.43;	0.1074
775.75;	0.1067
776.06;	0.1060
776.37;	0.1053
776.69;	0.1046
777.00;	0.1039
777.32;	0.1032
777.63;	0.1025
777.95;	0.1018
778.26;	0.1011
778.57;	0.1004
778.89;	0.0997
779.20;	0.0991
779.52;	0.0984
779.83;	0.0977
780.15;	0.0970
780.46;	0.0963
780.77;	0.0957
781.09;	0.0950
781.40;	0.0943
781.72;	0.0937
782.03;	0.0930
782.35;	0.0924
782.66;	0.0917
782.97;	0.0911
783.29;	0.0904
783.60;	0.0898
783.92;	0.0891
784.23;	0.0885
784.55;	0.0878
784.86;	0.0872
785.17;	0.0866
785.49;	0.0859
785.80;	0.0853
786.12;	0.0847
786.43;	0.0841
786.75;	0.0835
787.06;	0.0828
787.37;	0.0822
787.69;	0.0816
788.00;	0.0810
788.32;	0.0804
788.63;	0.0798
788.95;	0.0792
789.26;	0.0786
789.57;	0.0780
789.89;	0.0774
790.20;	0.0768
790.52;	0.0762
790.83;	0.0757
791.14;	0.0751
791.46;	0.0745
791.77;	0.0739
792.09;	0.0734
792.40;	0.0728
792.72;	0.0722
793.03;	0.0717
793.34;	0.0711
793.66;	0.0705
793.97;	0.0700
794.29;	0.0694
794.60;	0.0689
794.92;	0.0683
795.23;	0.0678
795.54;	0.0672
795.86;	0.0667
796.17;	0.0662
796.49;	0.0656
796.80;	0.0651
797.12;	0.0646
797.43;	0.0641
797.74;	0.0635
798.06;	0.0630
798.37;	0.0625
798.69;	0.0620
799.00;	0.0615
799.32;	0.0610
799.63;	0.0605
799.94;	0.0600
800.26;	0.0595
800.57;	0.0590
800.89;	0.0585
801.20;	0.0580
801.52;	0.0575
801.83;	0.0570
802.14;	0.0566
802.46;	0.0561
802.77;	0.0556
803.09;	0.0551
803.40;	0.0547
803.72;	0.0542
804.03;	0.0537
804.34;	0.0533
804.66;	0.0528
804.97;	0.0523
805.29;	0.0519
805.60;	0.0514
805.92;	0.0510
806.23;	0.0506
806.54;	0.0501
806.86;	0.0497
807.17;	0.0492
807.49;	0.0488
807.80;	0.0484
808.12;	0.0479
808.43;	0.0475
808.74;	0.0471
809.06;	0.0467
809.37;	0.0463
809.69;	0.0458
810.00;	0.0454
810.32;	0.0450
810.63;	0.0446
810.94;	0.0442
811.26;	0.0438
811.57;	0.0434
811.89;	0.0430
812.20;	0.0426
812.51;	0.0422
812.83;	0.0418
813.14;	0.0415
813.46;	0.0411
813.77;	0.0407
814.09;	0.0403
814.40;	0.0400
814.71;	0.0396
815.03;	0.0392
815.34;	0.0388
815.66;	0.0385
815.97;	0.0381
816.29;	0.0378
816.60;	0.0374
816.91;	0.0370
817.23;	0.0367
817.54;	0.0363
817.86;	0.0360
818.17;	0.0357
818.49;	0.0353
818.80;	0.0350
819.11;	0.0346
819.43;	0.0343
819.74;	0.0340
820.06;	0.0336
820.37;	0.0333
820.69;	0.0330
821.00;	0.0327
